##NAMES=Actinolite
##RRUFFID=R040063
##IDEAL CHEMISTRY=Ca_2_(Mg_4.5-2.5_Fe^2+^_0.5-2.5_)_&#931;=5_Si_8_O_22_(OH)_2_
##LOCALITY=Harford County, Maryland, USA
##OWNER=RRUFF
##SOURCE=University of Arizona Mineral Museum
##DESCRIPTION=Mass of green acicular to bladed crystals associated with chlorite
##STATUS=The identification of this mineral has been confirmed by X-ray diffraction and chemical analysis
##URL=rruff.info/R040063
3.991926e+002, 0.000000e+000
4.011211e+002, 3.742658e-001
4.030496e+002, 3.760734e-001
4.049780e+002, 3.789693e-001
4.069065e+002, 4.003279e-001
4.088350e+002, 4.038887e-001
4.107634e+002, 4.203614e-001
4.126919e+002, 4.461110e-001
4.146204e+002, 4.513454e-001
4.165488e+002, 4.433273e-001
4.184773e+002, 4.460176e-001
4.204058e+002, 4.201042e-001
4.223342e+002, 4.002304e-001
4.242627e+002, 3.894567e-001
4.261912e+002, 3.763566e-001
4.281196e+002, 3.720070e-001
4.300481e+002, 3.833788e-001
4.319766e+002, 3.957879e-001
4.339050e+002, 4.019180e-001
4.358335e+002, 4.019818e-001
4.377620e+002, 4.035814e-001
4.396904e+002, 3.993773e-001
4.416189e+002, 3.984080e-001
4.435474e+002, 4.008315e-001
4.454758e+002, 3.985068e-001
4.474043e+002, 3.891686e-001
4.493328e+002, 3.788615e-001
4.512612e+002, 3.717208e-001
4.531897e+002, 3.668889e-001
4.551182e+002, 3.572297e-001
4.570466e+002, 3.508446e-001
4.589751e+002, 3.492775e-001
4.609036e+002, 3.421676e-001
4.628320e+002, 3.251396e-001
4.647605e+002, 3.063333e-001
4.666890e+002, 2.876064e-001
4.686174e+002, 2.731120e-001
4.705459e+002, 2.583810e-001
4.724744e+002, 2.439123e-001
4.744028e+002, 2.324500e-001
4.763313e+002, 2.252492e-001
4.782598e+002, 2.170338e-001
4.801882e+002, 2.072592e-001
4.821167e+002, 1.984390e-001
4.840452e+002, 1.927391e-001
4.859736e+002, 1.899394e-001
4.879021e+002, 1.875436e-001
4.898306e+002, 1.849901e-001
4.917590e+002, 1.845579e-001
4.936875e+002, 1.840749e-001
4.956160e+002, 1.816349e-001
4.975444e+002, 1.781960e-001
4.994729e+002, 1.765133e-001
5.014014e+002, 1.759459e-001
5.033298e+002, 1.758346e-001
5.052583e+002, 1.757767e-001
5.071868e+002, 1.732367e-001
5.091152e+002, 1.676176e-001
5.110437e+002, 1.603122e-001
5.129722e+002, 1.522116e-001
5.149006e+002, 1.445139e-001
5.168291e+002, 1.381136e-001
5.187576e+002, 1.327112e-001
5.206860e+002, 1.279600e-001
5.226145e+002, 1.242594e-001
5.245430e+002, 1.210017e-001
5.264714e+002, 1.164230e-001
5.283999e+002, 1.111347e-001
5.303284e+002, 1.068075e-001
5.322568e+002, 1.020562e-001
5.341853e+002, 9.800576e-002
5.361138e+002, 9.475483e-002
5.380422e+002, 9.121963e-002
5.399707e+002, 8.820554e-002
5.418992e+002, 8.537367e-002
5.438276e+002, 8.168014e-002
5.457561e+002, 7.812033e-002
5.476846e+002, 7.537372e-002
5.496130e+002, 7.270432e-002
5.515415e+002, 6.910139e-002
5.534700e+002, 6.492271e-002
5.553984e+002, 6.152754e-002
5.573269e+002, 5.818875e-002
5.592554e+002, 5.559366e-002
5.611838e+002, 5.258860e-002
5.631123e+002, 4.833985e-002
5.650408e+002, 4.438471e-002
5.669692e+002, 4.058309e-002
5.688977e+002, 3.687660e-002
5.708262e+002, 3.388720e-002
5.727546e+002, 3.198639e-002
5.746831e+002, 2.992677e-002
5.766116e+002, 2.794718e-002
5.785400e+002, 2.657649e-002
5.804685e+002, 2.563056e-002
5.823970e+002, 2.514446e-002
5.843254e+002, 2.402577e-002
5.862539e+002, 2.240666e-002
5.881824e+002, 2.196462e-002
5.901108e+002, 2.207823e-002
5.920393e+002, 2.197730e-002
5.939678e+002, 2.197645e-002
5.958962e+002, 2.241762e-002
5.978247e+002, 2.293401e-002
5.997532e+002, 2.299515e-002
6.016816e+002, 2.261327e-002
6.036101e+002, 2.273987e-002
6.055386e+002, 2.356568e-002
6.074670e+002, 2.489744e-002
6.093955e+002, 2.587271e-002
6.113240e+002, 2.641856e-002
6.132524e+002, 2.674052e-002
6.151809e+002, 2.756414e-002
6.171094e+002, 2.897658e-002
6.190378e+002, 3.081726e-002
6.209663e+002, 3.183058e-002
6.228948e+002, 3.273379e-002
6.248232e+002, 3.499630e-002
6.267517e+002, 3.779159e-002
6.286802e+002, 4.081118e-002
6.306086e+002, 4.401964e-002
6.325371e+002, 4.800216e-002
6.344656e+002, 5.295154e-002
6.363940e+002, 5.895679e-002
6.383225e+002, 6.525607e-002
6.402510e+002, 7.029081e-002
6.421794e+002, 7.382327e-002
6.441079e+002, 7.628174e-002
6.460364e+002, 7.862266e-002
6.479648e+002, 8.294191e-002
6.498933e+002, 9.058705e-002
6.518218e+002, 1.019565e-001
6.537502e+002, 1.163037e-001
6.556787e+002, 1.332739e-001
6.576072e+002, 1.537005e-001
6.595356e+002, 1.786896e-001
6.614641e+002, 2.086109e-001
6.633926e+002, 2.423348e-001
6.653210e+002, 2.734111e-001
6.672495e+002, 2.896895e-001
6.691780e+002, 2.812456e-001
6.711064e+002, 2.554308e-001
6.730349e+002, 2.256579e-001
6.749634e+002, 1.989985e-001
6.768918e+002, 1.781996e-001
6.788203e+002, 1.623392e-001
6.807488e+002, 1.487651e-001
6.826772e+002, 1.354134e-001
6.846057e+002, 1.226658e-001
6.865342e+002, 1.108758e-001
6.884626e+002, 9.879359e-002
6.903911e+002, 8.690922e-002
6.923196e+002, 7.617947e-002
6.942480e+002, 6.691103e-002
6.961765e+002, 5.929776e-002
6.981050e+002, 5.375637e-002
7.000334e+002, 4.899060e-002
7.019619e+002, 4.484937e-002
7.038904e+002, 4.210984e-002
7.058188e+002, 4.039847e-002
7.077473e+002, 3.876293e-002
7.096758e+002, 3.734503e-002
7.116042e+002, 3.663146e-002
7.135327e+002, 3.659668e-002
7.154612e+002, 3.681384e-002
7.173896e+002, 3.731962e-002
7.193181e+002, 3.861662e-002
7.212466e+002, 3.994293e-002
7.231750e+002, 4.092170e-002
7.251035e+002, 4.130964e-002
7.270320e+002, 4.132047e-002
7.289604e+002, 4.163918e-002
7.308889e+002, 4.269170e-002
7.328174e+002, 4.439545e-002
7.347458e+002, 4.649921e-002
7.366743e+002, 4.872910e-002
7.386028e+002, 5.022176e-002
7.405313e+002, 5.085244e-002
7.424597e+002, 5.244755e-002
7.443882e+002, 5.548222e-002
7.463167e+002, 5.934241e-002
7.482451e+002, 6.360835e-002
7.501736e+002, 6.844206e-002
7.521021e+002, 7.542146e-002
7.540305e+002, 8.394219e-002
7.559590e+002, 9.086296e-002
7.578875e+002, 9.261398e-002
7.598159e+002, 8.862255e-002
7.617444e+002, 8.118662e-002
7.636729e+002, 7.268900e-002
7.656013e+002, 6.468709e-002
7.675298e+002, 5.799382e-002
7.694583e+002, 5.275539e-002
7.713867e+002, 4.903715e-002
7.733152e+002, 4.672596e-002
7.752437e+002, 4.573219e-002
7.771721e+002, 4.537578e-002
7.791006e+002, 4.514584e-002
7.810291e+002, 4.486955e-002
7.829575e+002, 4.398036e-002
7.848860e+002, 4.326506e-002
7.868145e+002, 4.335769e-002
7.887429e+002, 4.336004e-002
7.906714e+002, 4.320001e-002
7.925999e+002, 4.274484e-002
7.945283e+002, 4.308345e-002
7.964568e+002, 4.379918e-002
7.983853e+002, 4.430164e-002
8.003137e+002, 4.490596e-002
8.022422e+002, 4.579753e-002
8.041707e+002, 4.709221e-002
8.060991e+002, 4.840025e-002
8.080276e+002, 5.002914e-002
8.099561e+002, 5.163697e-002
8.118845e+002, 5.310997e-002
8.138130e+002, 5.493696e-002
8.157415e+002, 5.649185e-002
8.176699e+002, 5.813487e-002
8.195984e+002, 6.018146e-002
8.215269e+002, 6.215440e-002
8.234553e+002, 6.356814e-002
8.253838e+002, 6.524982e-002
8.273123e+002, 6.686327e-002
8.292407e+002, 6.878284e-002
8.311692e+002, 7.138935e-002
8.330977e+002, 7.416336e-002
8.350261e+002, 7.726797e-002
8.369546e+002, 8.101612e-002
8.388831e+002, 8.464001e-002
8.408115e+002, 8.832739e-002
8.427400e+002, 9.210100e-002
8.446685e+002, 9.601292e-002
8.465969e+002, 1.001605e-001
8.485254e+002, 1.044326e-001
8.504539e+002, 1.087606e-001
8.523823e+002, 1.137826e-001
8.543108e+002, 1.191100e-001
8.562393e+002, 1.242283e-001
8.581677e+002, 1.300236e-001
8.600962e+002, 1.361255e-001
8.620247e+002, 1.423579e-001
8.639531e+002, 1.494406e-001
8.658816e+002, 1.565315e-001
8.678101e+002, 1.637428e-001
8.697385e+002, 1.718404e-001
8.716670e+002, 1.803433e-001
8.735955e+002, 1.891369e-001
8.755239e+002, 1.985951e-001
8.774524e+002, 2.082852e-001
8.793809e+002, 2.185066e-001
8.813093e+002, 2.288730e-001
8.832378e+002, 2.400932e-001
8.851663e+002, 2.521691e-001
8.870947e+002, 2.635188e-001
8.890232e+002, 2.744994e-001
8.909517e+002, 2.867985e-001
8.928801e+002, 2.992356e-001
8.948085e+002, 3.123151e-001
8.967370e+002, 3.262658e-001
8.986655e+002, 3.405652e-001
9.005939e+002, 3.554178e-001
9.025224e+002, 3.703976e-001
9.044509e+002, 3.853161e-001
9.063793e+002, 4.008558e-001
9.083078e+002, 4.157847e-001
9.102363e+002, 4.294875e-001
9.121647e+002, 4.420502e-001
9.140932e+002, 4.527479e-001
9.160217e+002, 4.598593e-001
9.179501e+002, 4.624990e-001
9.198786e+002, 4.610335e-001
9.218071e+002, 4.568647e-001
9.237355e+002, 4.519108e-001
9.256640e+002, 4.481563e-001
9.275925e+002, 4.481966e-001
9.295209e+002, 4.550755e-001
9.314494e+002, 4.698741e-001
9.333779e+002, 4.903648e-001
9.353063e+002, 5.132878e-001
9.372348e+002, 5.352441e-001
9.391633e+002, 5.553006e-001
9.410917e+002, 5.722953e-001
9.430202e+002, 5.835218e-001
9.449487e+002, 5.905499e-001
9.468771e+002, 5.938610e-001
9.488056e+002, 5.941965e-001
9.507341e+002, 5.929973e-001
9.526625e+002, 5.915005e-001
9.545910e+002, 5.904694e-001
9.565195e+002, 5.895274e-001
9.584479e+002, 5.889704e-001
9.603764e+002, 5.901427e-001
9.623049e+002, 5.929003e-001
9.642333e+002, 5.962867e-001
9.661618e+002, 6.003211e-001
9.680903e+002, 6.053131e-001
9.700187e+002, 6.111882e-001
9.719472e+002, 6.171104e-001
9.738757e+002, 6.234343e-001
9.758041e+002, 6.302758e-001
9.777326e+002, 6.373299e-001
9.796611e+002, 6.444538e-001
9.815895e+002, 6.509796e-001
9.835180e+002, 6.563827e-001
9.854465e+002, 6.595001e-001
9.873749e+002, 6.612180e-001
9.893034e+002, 6.616851e-001
9.912319e+002, 6.610249e-001
9.931603e+002, 6.594749e-001
9.950888e+002, 6.576476e-001
9.970173e+002, 6.562086e-001
9.989457e+002, 6.547235e-001
1.000874e+003, 6.527727e-001
1.002803e+003, 6.487212e-001
1.004731e+003, 6.423407e-001
1.006660e+003, 6.329069e-001
1.008588e+003, 6.175620e-001
1.010517e+003, 5.951921e-001
1.012445e+003, 5.668002e-001
1.014373e+003, 5.336604e-001
1.016302e+003, 4.964561e-001
1.018230e+003, 4.562310e-001
1.020159e+003, 4.153339e-001
1.022087e+003, 3.776147e-001
1.024016e+003, 3.452858e-001
1.025944e+003, 3.183496e-001
1.027873e+003, 2.956682e-001
1.029801e+003, 2.754180e-001
1.031730e+003, 2.568957e-001
1.033658e+003, 2.400917e-001
1.035587e+003, 2.238056e-001
1.037515e+003, 2.073926e-001
1.039444e+003, 1.913802e-001
1.041372e+003, 1.772458e-001
1.043301e+003, 1.653548e-001
1.045229e+003, 1.558054e-001
1.047157e+003, 1.486405e-001
1.049086e+003, 1.440380e-001
1.051014e+003, 1.415407e-001
1.052943e+003, 1.408854e-001
1.054871e+003, 1.410110e-001
1.056800e+003, 1.409380e-001
1.058728e+003, 1.403740e-001
1.060657e+003, 1.394873e-001
1.062585e+003, 1.385088e-001
1.064514e+003, 1.372528e-001
1.066442e+003, 1.355555e-001
1.068371e+003, 1.337195e-001
1.070299e+003, 1.316576e-001
1.072228e+003, 1.293768e-001
1.074156e+003, 1.269447e-001
1.076084e+003, 1.244356e-001
1.078013e+003, 1.219281e-001
1.079941e+003, 1.194610e-001
1.081870e+003, 1.170587e-001
1.083798e+003, 1.144649e-001
1.085727e+003, 1.121269e-001
1.087655e+003, 1.100660e-001
1.089584e+003, 1.080494e-001
1.091512e+003, 1.060109e-001
1.093441e+003, 1.038829e-001
1.095369e+003, 1.013253e-001
1.097298e+003, 9.880088e-002
1.099226e+003, 9.641117e-002
1.101155e+003, 9.420625e-002
1.103083e+003, 9.228934e-002
1.105011e+003, 8.993696e-002
1.106940e+003, 8.762033e-002
1.108868e+003, 8.517284e-002
1.110797e+003, 8.231543e-002
1.112725e+003, 7.918307e-002
1.114654e+003, 7.633317e-002
1.116582e+003, 7.318827e-002
1.118511e+003, 6.980784e-002
1.120439e+003, 6.656499e-002
1.122368e+003, 6.331179e-002
1.124296e+003, 6.077609e-002
1.126225e+003, 5.826212e-002
1.128153e+003, 5.521499e-002
1.130082e+003, 5.192277e-002
1.132010e+003, 4.816979e-002
1.133938e+003, 4.436426e-002
1.135867e+003, 4.066536e-002
1.137795e+003, 3.710205e-002
1.139724e+003, 3.371040e-002
1.141652e+003, 3.054621e-002
1.143581e+003, 2.743457e-002
1.145509e+003, 2.431341e-002
1.147438e+003, 2.162212e-002
1.149366e+003, 1.980007e-002
1.151295e+003, 1.809246e-002
1.153223e+003, 1.617893e-002
1.155152e+003, 1.466202e-002
1.157080e+003, 1.359865e-002
1.159009e+003, 1.274805e-002
1.160937e+003, 1.195484e-002
1.162865e+003, 1.125124e-002
1.164794e+003, 1.082827e-002
1.166722e+003, 1.017255e-002
1.168651e+003, 9.539000e-003
1.170579e+003, 9.194309e-003
1.172508e+003, 8.963905e-003
1.174436e+003, 8.635873e-003
1.176365e+003, 8.402458e-003
1.178293e+003, 8.278105e-003
1.180222e+003, 8.058633e-003
1.182150e+003, 7.605856e-003
1.184079e+003, 7.110486e-003
1.186007e+003, 6.911478e-003
1.187936e+003, 6.927786e-003
1.189864e+003, 6.994211e-003
1.191792e+003, 6.978362e-003
1.193721e+003, 6.887207e-003
1.195649e+003, 6.680253e-003
1.197578e+003, 6.635221e-003
1.199506e+003, 6.463273e-003
1.201435e+003, 6.247661e-003
1.203363e+003, 6.004670e-003
1.205292e+003, 5.832544e-003
1.207220e+003, 5.798864e-003
1.209149e+003, 5.499692e-003
1.211077e+003, 5.270506e-003
1.213006e+003, 5.129735e-003
1.214934e+003, 4.990200e-003
1.216863e+003, 4.941548e-003
1.218791e+003, 4.762538e-003
1.220719e+003, 4.675372e-003
1.222648e+003, 4.486083e-003
1.224576e+003, 4.385246e-003
1.226505e+003, 4.286771e-003
1.228433e+003, 4.155594e-003
1.230362e+003, 4.199316e-003
1.232290e+003, 4.173565e-003
1.234219e+003, 4.187052e-003
1.236147e+003, 4.199021e-003
1.238076e+003, 4.134772e-003
1.240004e+003, 4.142901e-003
1.241933e+003, 4.068614e-003
1.243861e+003, 3.746869e-003
1.245790e+003, 3.667222e-003
1.247718e+003, 3.682140e-003
1.249646e+003, 3.651012e-003
1.251575e+003, 3.364354e-003
1.253503e+003, 2.999542e-003
1.255432e+003, 2.835325e-003
1.257360e+003, 2.494525e-003
1.259289e+003, 2.050627e-003
1.261217e+003, 1.869802e-003
1.263146e+003, 2.065382e-003
1.265074e+003, 2.233291e-003
1.267003e+003, 2.361458e-003
1.268931e+003, 2.719074e-003
1.270860e+003, 2.820189e-003
1.272788e+003, 2.854669e-003
1.274717e+003, 3.063117e-003
1.276645e+003, 3.262019e-003
1.278573e+003, 3.295943e-003
1.280502e+003, 3.529075e-003
1.282430e+003, 3.645390e-003
1.284359e+003, 3.268491e-003
1.286287e+003, 3.223026e-003
1.288216e+003, 3.494312e-003
1.290144e+003, 3.480628e-003
1.292073e+003, 3.515065e-003
1.294001e+003, 3.504445e-003
1.295930e+003, 3.554684e-003
1.297858e+003, 3.473120e-003
1.299787e+003, 3.393574e-003
1.301715e+003, 3.346669e-003
1.303644e+003, 3.210400e-003
1.305572e+003, 3.117495e-003
1.307500e+003, 3.326168e-003
1.309429e+003, 3.327831e-003
1.311357e+003, 3.115095e-003
1.313286e+003, 3.327625e-003
1.315214e+003, 3.578525e-003
1.317143e+003, 3.237157e-003
1.319071e+003, 2.932861e-003
1.321000e+003, 2.807187e-003
1.322928e+003, 2.746985e-003
1.324857e+003, 2.518074e-003
1.326785e+003, 2.295453e-003
1.328714e+003, 2.058211e-003
1.330642e+003, 2.298664e-003
1.332571e+003, 2.740862e-003
1.334499e+003, 2.791725e-003
1.336427e+003, 2.718648e-003
1.338356e+003, 2.565470e-003
1.340284e+003, 2.371524e-003
1.342213e+003, 2.434688e-003
1.344141e+003, 2.600390e-003
1.346070e+003, 2.630375e-003
1.347998e+003, 2.752055e-003
1.349927e+003, 2.928289e-003
1.351855e+003, 2.716563e-003
1.353784e+003, 2.660905e-003
1.355712e+003, 2.518929e-003
1.357641e+003, 2.473532e-003
1.359569e+003, 2.517545e-003
1.361498e+003, 2.350160e-003
1.363426e+003, 2.582287e-003
1.365354e+003, 2.805875e-003
1.367283e+003, 2.709740e-003
1.369211e+003, 2.744723e-003
1.371140e+003, 2.852200e-003
1.373068e+003, 2.736377e-003
1.374997e+003, 2.530945e-003
1.376925e+003, 2.762996e-003
1.378854e+003, 2.905042e-003
1.380782e+003, 2.821890e-003
1.382711e+003, 2.947810e-003
1.384639e+003, 3.065992e-003
1.386568e+003, 2.865690e-003
1.388496e+003, 2.849828e-003
1.390424e+003, 2.922584e-003
1.392353e+003, 3.026478e-003
1.394281e+003, 3.120861e-003
1.396210e+003, 3.081201e-003
1.398138e+003, 2.998936e-003
1.400067e+003, 2.983680e-003
1.401995e+003, 3.046046e-003
1.403924e+003, 3.208332e-003
1.405852e+003, 3.450576e-003
1.407781e+003, 3.332438e-003
1.409709e+003, 3.077896e-003
1.411638e+003, 3.357475e-003
1.413566e+003, 3.551586e-003
1.415495e+003, 3.264729e-003
1.417423e+003, 3.101294e-003
1.419351e+003, 3.265189e-003
1.421280e+003, 3.283682e-003
1.423208e+003, 3.406795e-003
1.425137e+003, 3.444903e-003
1.427065e+003, 3.314697e-003
1.428994e+003, 3.245263e-003
1.430922e+003, 3.347032e-003
1.432851e+003, 3.489158e-003
1.434779e+003, 3.323272e-003
1.436708e+003, 3.256595e-003
1.438636e+003, 3.378776e-003
1.440565e+003, 3.374366e-003
1.442493e+003, 3.258796e-003
1.444422e+003, 3.074517e-003
1.446350e+003, 3.267382e-003
1.448278e+003, 3.344465e-003
1.450207e+003, 3.341671e-003
1.452135e+003, 3.472455e-003
1.454064e+003, 3.329748e-003
1.455992e+003, 2.757444e-003
1.457921e+003, 2.952271e-003
1.459849e+003, 3.381232e-003
1.461778e+003, 3.308648e-003
1.463706e+003, 3.139383e-003
1.465635e+003, 3.065359e-003
1.467563e+003, 3.226401e-003
1.469492e+003, 3.406372e-003
1.471420e+003, 3.003378e-003
1.473349e+003, 2.693446e-003
1.475277e+003, 2.599056e-003
1.477205e+003, 2.403269e-003
1.479134e+003, 2.513556e-003
1.481062e+003, 2.740308e-003
1.482991e+003, 2.660361e-003
1.484919e+003, 2.283279e-003
1.486848e+003, 2.080563e-003
1.488776e+003, 2.150394e-003
1.490705e+003, 2.329448e-003
1.492633e+003, 2.428177e-003
1.494562e+003, 1.932113e-003
1.496490e+003, 1.936512e-003
1.498419e+003, 2.194488e-003
1.500347e+003, 2.291145e-003
1.502276e+003, 2.257346e-003
1.504204e+003, 1.789883e-003
1.506132e+003, 1.245666e-003
1.508061e+003, 1.370909e-003
1.509989e+003, 1.809625e-003
1.511918e+003, 2.025137e-003
1.513846e+003, 1.994078e-003
1.515775e+003, 1.929712e-003
1.517703e+003, 1.798675e-003
1.519632e+003, 1.944378e-003
1.521560e+003, 1.996690e-003
1.523489e+003, 2.395189e-003
1.525417e+003, 2.559438e-003
1.527346e+003, 2.488756e-003
1.529274e+003, 2.510559e-003
1.531203e+003, 2.609430e-003
1.533131e+003, 2.414977e-003
1.535059e+003, 2.611357e-003
1.536988e+003, 2.548336e-003
1.538916e+003, 1.797726e-003
1.540845e+003, 1.838883e-003
1.542773e+003, 2.432483e-003
1.544702e+003, 2.910789e-003
1.546630e+003, 2.993283e-003
1.548559e+003, 2.997796e-003
1.550487e+003, 3.056377e-003
1.552416e+003, 3.103111e-003
1.554344e+003, 3.165760e-003
1.556273e+003, 3.190470e-003
1.558201e+003, 2.990006e-003
1.560130e+003, 3.005643e-003
1.562058e+003, 3.498103e-003
1.563986e+003, 3.944114e-003
1.565915e+003, 4.091679e-003
1.567843e+003, 4.069799e-003
1.569772e+003, 3.714713e-003
1.571700e+003, 3.690611e-003
1.573629e+003, 3.747675e-003
1.575557e+003, 3.657577e-003
1.577486e+003, 3.794292e-003
1.579414e+003, 4.287484e-003
1.581343e+003, 4.346236e-003
1.583271e+003, 4.364282e-003
1.585200e+003, 4.493378e-003
1.587128e+003, 4.538211e-003
1.589057e+003, 4.756360e-003
1.590985e+003, 4.640629e-003
1.592913e+003, 4.623873e-003
1.594842e+003, 4.810278e-003
1.596770e+003, 4.620603e-003
1.598699e+003, 4.516530e-003
1.600627e+003, 4.477816e-003
1.602556e+003, 4.554788e-003
1.604484e+003, 5.279220e-003
1.606413e+003, 5.381314e-003
1.608341e+003, 4.909625e-003
1.610270e+003, 4.745017e-003
1.612198e+003, 5.019451e-003
1.614127e+003, 5.251069e-003
1.616055e+003, 5.389940e-003
1.617984e+003, 5.456454e-003
1.619912e+003, 5.141919e-003
1.621840e+003, 4.894775e-003
1.623769e+003, 5.352175e-003
1.625697e+003, 5.733986e-003
1.627626e+003, 5.749849e-003
1.629554e+003, 6.003206e-003
1.631483e+003, 6.665941e-003
1.633411e+003, 6.280493e-003
1.635340e+003, 5.547439e-003
1.637268e+003, 5.874344e-003
1.639197e+003, 6.417010e-003
1.641125e+003, 6.580645e-003
1.643054e+003, 6.836765e-003
1.644982e+003, 6.832609e-003
1.646911e+003, 6.792660e-003
1.648839e+003, 6.634702e-003
1.650767e+003, 6.096221e-003
1.652696e+003, 5.626217e-003
1.654624e+003, 6.014407e-003
1.656553e+003, 6.552126e-003
1.658481e+003, 6.579455e-003
1.660410e+003, 6.666733e-003
1.662338e+003, 7.112775e-003
1.664267e+003, 7.321960e-003
1.666195e+003, 7.006272e-003
1.668124e+003, 7.000820e-003
1.670052e+003, 7.244961e-003
1.671981e+003, 7.074696e-003
1.673909e+003, 6.939881e-003
1.675838e+003, 6.502018e-003
1.677766e+003, 6.408670e-003
1.679694e+003, 6.657810e-003
1.681623e+003, 6.096687e-003
1.683551e+003, 5.310029e-003
1.685480e+003, 5.429377e-003
1.687408e+003, 5.834245e-003
1.689337e+003, 6.034121e-003
1.691265e+003, 6.164236e-003
1.693194e+003, 6.091075e-003
1.695122e+003, 5.482006e-003
1.697051e+003, 5.459611e-003
1.698979e+003, 5.830008e-003
1.700908e+003, 5.948347e-003
1.702836e+003, 6.441688e-003
1.704765e+003, 6.313044e-003
1.706693e+003, 6.458773e-003
1.708621e+003, 7.167008e-003
1.710550e+003, 7.299035e-003
1.712478e+003, 6.496530e-003
1.714407e+003, 6.039962e-003
1.716335e+003, 5.634695e-003
1.718264e+003, 5.290775e-003
1.720192e+003, 5.769155e-003
1.722121e+003, 5.936197e-003
1.724049e+003, 5.502536e-003
1.725978e+003, 5.440013e-003
1.727906e+003, 4.996560e-003
1.729835e+003, 4.806598e-003
1.731763e+003, 4.426577e-003
1.733692e+003, 3.919635e-003
1.735620e+003, 4.243989e-003
1.737548e+003, 4.891886e-003
1.739477e+003, 4.769268e-003
1.741405e+003, 4.245238e-003
1.743334e+003, 4.307518e-003
1.745262e+003, 4.676934e-003
1.747191e+003, 4.624533e-003
1.749119e+003, 4.552879e-003
1.751048e+003, 4.557242e-003
1.752976e+003, 4.402986e-003
1.754905e+003, 4.389316e-003
1.756833e+003, 4.514108e-003
1.758762e+003, 4.514586e-003
1.760690e+003, 4.548045e-003
1.762619e+003, 4.463373e-003
1.764547e+003, 4.403407e-003
1.766475e+003, 4.416228e-003
1.768404e+003, 4.141113e-003
1.770332e+003, 3.780104e-003
1.772261e+003, 3.571311e-003
1.774189e+003, 3.965038e-003
1.776118e+003, 4.027466e-003
1.778046e+003, 3.869327e-003
1.779975e+003, 3.917626e-003
1.781903e+003, 3.829866e-003
1.783832e+003, 3.680112e-003
1.785760e+003, 3.877188e-003
1.787689e+003, 3.984790e-003
1.789617e+003, 4.138587e-003
1.791546e+003, 4.412311e-003
1.793474e+003, 4.259572e-003
1.795402e+003, 3.917438e-003
1.797331e+003, 4.080929e-003
1.799259e+003, 4.093237e-003
1.801188e+003, 4.088046e-003
1.803116e+003, 4.271690e-003
1.805045e+003, 4.078322e-003
1.806973e+003, 4.376059e-003
1.808902e+003, 4.224818e-003
1.810830e+003, 3.630155e-003
1.812759e+003, 3.763510e-003
1.814687e+003, 3.644752e-003
1.816616e+003, 3.696766e-003
1.818544e+003, 4.454755e-003
1.820473e+003, 4.380882e-003
1.822401e+003, 3.792155e-003
1.824329e+003, 3.526845e-003
1.826258e+003, 3.775971e-003
1.828186e+003, 3.832993e-003
1.830115e+003, 3.452038e-003
1.832043e+003, 3.412221e-003
1.833972e+003, 2.822660e-003
1.835900e+003, 2.711750e-003
1.837829e+003, 2.515787e-003
1.839757e+003, 2.349858e-003
1.841686e+003, 2.711130e-003
1.843614e+003, 2.071780e-003
1.845543e+003, 1.794581e-003
1.847471e+003, 2.107746e-003
1.849400e+003, 2.123860e-003
1.851328e+003, 1.596199e-003
1.853256e+003, 1.470447e-003
1.855185e+003, 2.428392e-003
1.857113e+003, 2.347743e-003
1.859042e+003, 1.933365e-003
1.860970e+003, 1.943478e-003
1.862899e+003, 1.964663e-003
1.864827e+003, 2.015038e-003
1.866756e+003, 2.439347e-003
1.868684e+003, 1.818876e-003
1.870613e+003, 1.346136e-003
1.872541e+003, 1.389242e-003
1.874470e+003, 1.645518e-003
1.876398e+003, 1.305197e-003
1.878327e+003, 1.084962e-003
1.880255e+003, 1.174331e-003
1.882183e+003, 9.348776e-004
1.884112e+003, -1.141909e-004
1.886040e+003, 1.127593e-004
1.887969e+003, 9.376218e-004
1.889897e+003, 5.341230e-004
1.891826e+003, -1.663539e-004
1.893754e+003, -1.595329e-004
1.895683e+003, -4.207310e-004
1.897611e+003, -9.020242e-004
1.899540e+003, -6.332748e-004
1.901468e+003, -1.630029e-004
1.903397e+003, -2.900109e-005
1.905325e+003, 9.904901e-005
1.907254e+003, 3.937665e-004
1.909182e+003, 8.256568e-005
1.911110e+003, -4.075884e-004
1.913039e+003, 3.747509e-004
1.914967e+003, 6.517201e-004
1.916896e+003, 5.106573e-004
1.918824e+003, -1.096326e-003
1.920753e+003, -1.807026e-003
1.922681e+003, -1.668948e-003
1.924610e+003, -1.865357e-003
1.926538e+003, -1.656203e-003
1.928467e+003, -2.249548e-003
1.930395e+003, -3.090664e-003
1.932324e+003, -3.091565e-003
1.934252e+003, -1.501537e-003
1.936181e+003, -1.381126e-003
1.938109e+003, -3.010430e-003
1.940037e+003, -4.100121e-003
1.941966e+003, -4.157338e-003
1.943894e+003, -4.731390e-003
1.945823e+003, -6.559503e-003
1.947751e+003, -6.835086e-003
1.949680e+003, -6.786551e-003
1.951608e+003, -5.759313e-003
1.953537e+003, -4.062628e-003
1.955465e+003, -5.547664e-003
1.957394e+003, -7.866057e-003
1.959322e+003, -8.018542e-003
1.961251e+003, -6.800548e-003
1.963179e+003, -6.667175e-003
1.965108e+003, -6.830556e-003
1.967036e+003, -8.212022e-003
1.968964e+003, -9.245129e-003
1.970893e+003, -8.884884e-003
1.972821e+003, -8.408166e-003
1.974750e+003, -1.080923e-002
1.976678e+003, -1.428738e-002
1.978607e+003, -1.019397e-002
1.980535e+003, -6.609783e-003
1.982464e+003, -7.428439e-003
1.984392e+003, -9.867625e-003
1.986321e+003, -1.129078e-002
1.988249e+003, -9.202045e-003
1.990178e+003, -7.730993e-003
1.992106e+003, -1.057121e-002
1.994035e+003, -1.111562e-002
1.995963e+003, -9.524543e-003
1.997891e+003, -8.214777e-003
1.999820e+003, -7.486194e-003
2.001748e+003, -8.612507e-003
2.003677e+003, -8.187993e-003
2.005605e+003, -7.846418e-003
2.007534e+003, -8.661727e-003
2.009462e+003, -1.067846e-002
2.011391e+003, -9.211834e-003
2.013319e+003, -7.887188e-003
2.015248e+003, -9.379712e-003
2.017176e+003, -9.837324e-003
2.019105e+003, -9.810495e-003
2.021033e+003, -1.064714e-002
2.022962e+003, -1.117627e-002
2.024890e+003, -1.222604e-002
2.026818e+003, -1.061941e-002
2.028747e+003, -8.940633e-003
2.030675e+003, -8.527433e-003
2.032604e+003, -7.702735e-003
2.034532e+003, -8.161529e-003
2.036461e+003, -7.290384e-003
2.038389e+003, -6.461048e-003
2.040318e+003, -8.255875e-003
2.042246e+003, -8.670961e-003
2.044175e+003, -7.209873e-003
2.046103e+003, -6.148600e-003
2.048032e+003, -3.271605e-003
2.049960e+003, -1.433395e-003
2.051889e+003, -9.519694e-004
2.053817e+003, -1.793950e-003
2.055746e+003, -3.646473e-003
2.057674e+003, -3.115283e-003
2.059603e+003, -9.868317e-004
2.061531e+003, -1.580475e-003
2.063459e+003, -2.419492e-003
2.065388e+003, -3.817313e-003
2.067316e+003, -2.760933e-003
2.069245e+003, -8.816536e-004
2.071173e+003, -7.998150e-004
2.073102e+003, -5.292931e-004
2.075030e+003, 6.298004e-004
2.076959e+003, 9.356354e-004
2.078887e+003, 6.899439e-004
2.080816e+003, 2.563232e-004
2.082744e+003, 7.146520e-004
2.084673e+003, 1.017483e-003
2.086601e+003, 1.304985e-003
2.088530e+003, 1.408938e-003
2.090458e+003, 8.290136e-004
2.092386e+003, -4.458710e-004
2.094315e+003, -5.844369e-004
2.096243e+003, -2.032917e-004
2.098172e+003, -6.033340e-004
2.100100e+003, 6.193047e-004
2.102029e+003, 8.616840e-004
2.103957e+003, 6.217345e-004
2.105886e+003, 6.573923e-004
2.107814e+003, -7.391294e-004
2.109743e+003, -4.784825e-004
2.111671e+003, -6.266797e-004
2.113600e+003, -6.971130e-004
2.115528e+003, -4.923111e-004
2.117457e+003, -1.130729e-003
2.119385e+003, -1.224914e-003
2.121313e+003, -8.113161e-004
2.123242e+003, -1.063970e-003
2.125170e+003, -1.253569e-003
2.127099e+003, -9.579748e-004
2.129027e+003, -1.046375e-004
2.130956e+003, -2.504427e-003
2.132884e+003, -4.556862e-003
2.134813e+003, -3.781507e-003
2.136741e+003, -2.389748e-003
2.138670e+003, -3.104447e-003
2.140598e+003, -3.922396e-003
2.142527e+003, -2.980961e-003
2.144455e+003, -2.480246e-003
2.146384e+003, -3.877379e-003
2.148312e+003, -4.631377e-003
2.150240e+003, -5.864357e-003
2.152169e+003, -7.485467e-003
2.154097e+003, -6.741269e-003
2.156026e+003, -6.006687e-003
2.157954e+003, -2.541209e-003
2.159883e+003, 1.552503e-003
2.161811e+003, 5.317294e-004
2.163740e+003, 8.646003e-004
2.165668e+003, 6.601671e-004
2.167597e+003, -1.932452e-003
2.169525e+003, -5.608791e-003
2.171454e+003, -4.671146e-003
2.173382e+003, -1.991554e-003
2.175311e+003, -6.619903e-004
2.177239e+003, -1.267980e-003
2.179167e+003, -3.242831e-003
2.181096e+003, -3.206535e-003
2.183024e+003, -3.451854e-003
2.184953e+003, -2.237199e-003
2.186881e+003, 1.108847e-003
2.188810e+003, 1.629061e-003
2.190738e+003, 3.627075e-004
2.192667e+003, 2.905394e-003
2.194595e+003, 1.458678e-003
2.196524e+003, -6.673202e-004
2.198452e+003, 1.589105e-003
2.200381e+003, 1.310790e-003
2.202309e+003, -3.102115e-004
2.204238e+003, 5.985039e-004
2.206166e+003, 1.707915e-003
2.208094e+003, 1.671679e-003
2.210023e+003, 1.355957e-003
2.211951e+003, 1.657654e-004
2.213880e+003, -3.282372e-004
2.215808e+003, 3.935971e-004
2.217737e+003, 1.906645e-003
2.219665e+003, 4.042112e-003
2.221594e+003, 3.585270e-003
2.223522e+003, 1.977734e-003
2.225451e+003, 2.889770e-003
2.227379e+003, 2.551490e-003
2.229308e+003, 1.787446e-003
2.231236e+003, 4.152949e-003
2.233165e+003, 7.037604e-003
2.235093e+003, 6.804564e-003
2.237021e+003, 4.507568e-003
2.238950e+003, 3.063160e-003
2.240878e+003, 2.367362e-003
2.242807e+003, 1.082115e-003
2.244735e+003, 3.072627e-003
2.246664e+003, 5.044722e-003
2.248592e+003, 4.950854e-003
2.250521e+003, 2.792718e-003
2.252449e+003, 1.961373e-003
2.254378e+003, 2.332356e-003
2.256306e+003, 4.365830e-003
2.258235e+003, 6.142550e-003
2.260163e+003, 5.487567e-003
2.262092e+003, 4.033387e-003
2.264020e+003, 3.837012e-003
2.265948e+003, 4.698565e-003
2.267877e+003, 4.507635e-003
2.269805e+003, 3.853816e-003
2.271734e+003, 4.715737e-003
2.273662e+003, 6.371062e-003
2.275591e+003, 7.566228e-003
2.277519e+003, 6.316970e-003
2.279448e+003, 5.897116e-003
2.281376e+003, 6.846514e-003
2.283305e+003, 6.462053e-003
2.285233e+003, 6.837763e-003
2.287162e+003, 7.357555e-003
2.289090e+003, 7.210671e-003
2.291019e+003, 7.389897e-003
2.292947e+003, 7.265418e-003
2.294875e+003, 5.707204e-003
2.296804e+003, 5.599918e-003
2.298732e+003, 6.940567e-003
2.300661e+003, 6.898955e-003
2.302589e+003, 6.682034e-003
2.304518e+003, 6.543064e-003
2.306446e+003, 6.541838e-003
2.308375e+003, 6.873124e-003
2.310303e+003, 6.782326e-003
2.312232e+003, 6.597403e-003
2.314160e+003, 6.567580e-003
2.316089e+003, 6.893168e-003
2.318017e+003, 7.143658e-003
2.319946e+003, 7.501528e-003
2.321874e+003, 7.867490e-003
2.323802e+003, 7.331537e-003
2.325731e+003, 5.843841e-003
2.327659e+003, 5.997085e-003
2.329588e+003, 6.622315e-003
2.331516e+003, 6.205838e-003
2.333445e+003, 5.783288e-003
2.335373e+003, 5.562516e-003
2.337302e+003, 5.275978e-003
2.339230e+003, 5.943499e-003
2.341159e+003, 5.776897e-003
2.343087e+003, 5.815467e-003
2.345016e+003, 5.646871e-003
2.346944e+003, 5.460914e-003
2.348873e+003, 5.795646e-003
2.350801e+003, 5.786667e-003
2.352729e+003, 5.781305e-003
2.354658e+003, 5.693499e-003
2.356586e+003, 5.317811e-003
2.358515e+003, 5.481809e-003
2.360443e+003, 5.800760e-003
2.362372e+003, 5.693736e-003
2.364300e+003, 5.004774e-003
2.366229e+003, 4.816661e-003
2.368157e+003, 4.529019e-003
2.370086e+003, 4.003756e-003
2.372014e+003, 4.074355e-003
2.373942e+003, 5.111436e-003
2.375871e+003, 5.545104e-003
2.377799e+003, 5.210837e-003
2.379728e+003, 4.440266e-003
2.381656e+003, 5.657483e-003
2.383585e+003, 6.514011e-003
2.385513e+003, 4.471725e-003
2.387442e+003, 3.420126e-003
2.389370e+003, 4.338100e-003
2.391299e+003, 5.244470e-003
2.393227e+003, 5.066351e-003
2.395156e+003, 5.565148e-003
2.397084e+003, 6.472379e-003
2.399012e+003, 6.300967e-003
2.400941e+003, 5.905314e-003
2.402869e+003, 5.983531e-003
2.404798e+003, 6.938123e-003
2.406726e+003, 7.029441e-003
2.408655e+003, 5.353462e-003
2.410583e+003, 4.604279e-003
2.412512e+003, 5.084292e-003
2.414440e+003, 5.697969e-003
2.416369e+003, 6.608098e-003
2.418297e+003, 5.726407e-003
2.420226e+003, 5.139327e-003
2.422154e+003, 6.209916e-003
2.424083e+003, 6.541711e-003
2.426011e+003, 5.594770e-003
2.427939e+003, 4.714340e-003
2.429868e+003, 5.190949e-003
2.431796e+003, 5.721325e-003
2.433725e+003, 5.230116e-003
2.435653e+003, 5.775706e-003
2.437582e+003, 6.076370e-003
2.439510e+003, 5.210702e-003
2.441439e+003, 5.618372e-003
2.443367e+003, 5.748955e-003
2.445296e+003, 5.899750e-003
2.447224e+003, 5.790934e-003
2.449153e+003, 5.159462e-003
2.451081e+003, 5.228768e-003
2.453010e+003, 5.807885e-003
2.454938e+003, 6.702418e-003
2.456866e+003, 6.110520e-003
2.458795e+003, 5.204240e-003
2.460723e+003, 6.808784e-003
2.462652e+003, 7.392916e-003
2.464580e+003, 6.120008e-003
2.466509e+003, 5.033211e-003
2.468437e+003, 4.627139e-003
2.470366e+003, 4.782279e-003
2.472294e+003, 5.665593e-003
2.474223e+003, 6.325417e-003
2.476151e+003, 5.432867e-003
2.478080e+003, 4.751655e-003
2.480008e+003, 5.837785e-003
2.481937e+003, 6.762281e-003
2.483865e+003, 6.280130e-003
2.485793e+003, 5.407062e-003
2.487722e+003, 4.957819e-003
2.489650e+003, 4.785052e-003
2.491579e+003, 4.909024e-003
2.493507e+003, 5.173347e-003
2.495436e+003, 5.458375e-003
2.497364e+003, 5.497415e-003
2.499293e+003, 5.782833e-003
2.501221e+003, 5.424893e-003
2.503150e+003, 6.136161e-003
2.505078e+003, 6.615099e-003
2.507007e+003, 6.323405e-003
2.508935e+003, 6.454523e-003
2.510864e+003, 7.027166e-003
2.512792e+003, 6.190774e-003
2.514720e+003, 5.470595e-003
2.516649e+003, 5.335516e-003
2.518577e+003, 5.606268e-003
2.520506e+003, 5.116547e-003
2.522434e+003, 4.955525e-003
2.524363e+003, 5.889832e-003
2.526291e+003, 6.173836e-003
2.528220e+003, 5.365049e-003
2.530148e+003, 5.469418e-003
2.532077e+003, 5.486875e-003
2.534005e+003, 5.501844e-003
2.535934e+003, 5.936498e-003
2.537862e+003, 6.369188e-003
2.539791e+003, 6.565280e-003
2.541719e+003, 7.183435e-003
2.543647e+003, 7.473720e-003
2.545576e+003, 7.487961e-003
2.547504e+003, 6.797548e-003
2.549433e+003, 6.573062e-003
2.551361e+003, 6.664340e-003
2.553290e+003, 5.758904e-003
2.555218e+003, 5.368432e-003
2.557147e+003, 5.815992e-003
2.559075e+003, 6.515780e-003
2.561004e+003, 7.099700e-003
2.562932e+003, 6.275153e-003
2.564861e+003, 5.492870e-003
2.566789e+003, 7.039075e-003
2.568718e+003, 8.219201e-003
2.570646e+003, 7.042330e-003
2.572574e+003, 5.648604e-003
2.574503e+003, 5.837531e-003
2.576431e+003, 6.579608e-003
2.578360e+003, 6.727804e-003
2.580288e+003, 6.686743e-003
2.582217e+003, 5.943523e-003
2.584145e+003, 5.783405e-003
2.586074e+003, 7.182027e-003
2.588002e+003, 7.164098e-003
2.589931e+003, 6.418507e-003
2.591859e+003, 6.512781e-003
2.593788e+003, 7.059254e-003
2.595716e+003, 6.356413e-003
2.597645e+003, 6.889775e-003
2.599573e+003, 7.916565e-003
2.601501e+003, 7.899461e-003
2.603430e+003, 7.280352e-003
2.605358e+003, 7.399009e-003
2.607287e+003, 7.471530e-003
2.609215e+003, 6.963889e-003
2.611144e+003, 6.774695e-003
2.613072e+003, 7.170665e-003
2.615001e+003, 7.797273e-003
2.616929e+003, 8.454710e-003
2.618858e+003, 8.575704e-003
2.620786e+003, 8.360689e-003
2.622715e+003, 6.987808e-003
2.624643e+003, 6.846797e-003
2.626572e+003, 7.615399e-003
2.628500e+003, 7.589681e-003
2.630428e+003, 6.801289e-003
2.632357e+003, 6.657457e-003
2.634285e+003, 7.925708e-003
2.636214e+003, 8.113529e-003
2.638142e+003, 7.258560e-003
2.640071e+003, 8.008460e-003
2.641999e+003, 8.763121e-003
2.643928e+003, 8.666854e-003
2.645856e+003, 8.346077e-003
2.647785e+003, 7.610800e-003
2.649713e+003, 7.323302e-003
2.651642e+003, 8.008227e-003
2.653570e+003, 8.686101e-003
2.655499e+003, 7.816022e-003
2.657427e+003, 7.019358e-003
2.659355e+003, 7.770130e-003
2.661284e+003, 7.970173e-003
2.663212e+003, 7.708771e-003
2.665141e+003, 7.260602e-003
2.667069e+003, 6.923663e-003
2.668998e+003, 6.721113e-003
2.670926e+003, 6.419442e-003
2.672855e+003, 6.409510e-003
2.674783e+003, 6.637301e-003
2.676712e+003, 6.748050e-003
2.678640e+003, 6.534034e-003
2.680569e+003, 6.215908e-003
2.682497e+003, 5.772640e-003
2.684426e+003, 5.905300e-003
2.686354e+003, 6.107028e-003
2.688282e+003, 6.394314e-003
2.690211e+003, 6.715918e-003
2.692139e+003, 7.198985e-003
2.694068e+003, 6.689309e-003
2.695996e+003, 6.452990e-003
2.697925e+003, 6.724453e-003
2.699853e+003, 6.991916e-003
2.701782e+003, 7.055073e-003
2.703710e+003, 7.180654e-003
2.705639e+003, 6.944434e-003
2.707567e+003, 6.651268e-003
2.709496e+003, 6.100867e-003
2.711424e+003, 5.560633e-003
2.713353e+003, 4.964312e-003
2.715281e+003, 5.528793e-003
2.717209e+003, 6.812010e-003
2.719138e+003, 6.642210e-003
2.721066e+003, 5.692668e-003
2.722995e+003, 6.410951e-003
2.724923e+003, 7.622642e-003
2.726852e+003, 7.848021e-003
2.728780e+003, 7.025931e-003
2.730709e+003, 6.641896e-003
2.732637e+003, 7.054753e-003
2.734566e+003, 7.741171e-003
2.736494e+003, 7.268283e-003
2.738423e+003, 6.945499e-003
2.740351e+003, 6.113995e-003
2.742280e+003, 5.447499e-003
2.744208e+003, 6.442377e-003
2.746136e+003, 7.072469e-003
2.748065e+003, 6.945060e-003
2.749993e+003, 7.342884e-003
2.751922e+003, 7.670607e-003
2.753850e+003, 7.524312e-003
2.755779e+003, 7.542310e-003
2.757707e+003, 7.448526e-003
2.759636e+003, 7.487576e-003
2.761564e+003, 7.736756e-003
2.763493e+003, 7.647962e-003
2.765421e+003, 7.210749e-003
2.767350e+003, 6.996094e-003
2.769278e+003, 6.913840e-003
2.771207e+003, 6.617205e-003
2.773135e+003, 6.192077e-003
2.775063e+003, 6.136970e-003
2.776992e+003, 6.428771e-003
2.778920e+003, 6.548068e-003
2.780849e+003, 6.795947e-003
2.782777e+003, 6.577532e-003
2.784706e+003, 6.945420e-003
2.786634e+003, 7.635558e-003
2.788563e+003, 6.912179e-003
2.790491e+003, 6.584335e-003
2.792420e+003, 6.781647e-003
2.794348e+003, 6.877310e-003
2.796277e+003, 7.642246e-003
2.798205e+003, 7.544165e-003
2.800134e+003, 7.189577e-003
2.802062e+003, 7.715731e-003
2.803990e+003, 7.914945e-003
2.805919e+003, 6.547040e-003
2.807847e+003, 6.005475e-003
2.809776e+003, 6.159122e-003
2.811704e+003, 7.385481e-003
2.813633e+003, 8.024325e-003
2.815561e+003, 8.080992e-003
2.817490e+003, 7.531317e-003
2.819418e+003, 7.599752e-003
2.821347e+003, 7.682048e-003
2.823275e+003, 8.224774e-003
2.825204e+003, 8.236283e-003
2.827132e+003, 7.543595e-003
2.829061e+003, 7.658496e-003
2.830989e+003, 8.247348e-003
2.832917e+003, 7.932410e-003
2.834846e+003, 6.913101e-003
2.836774e+003, 6.791706e-003
2.838703e+003, 7.640126e-003
2.840631e+003, 8.615266e-003
2.842560e+003, 8.346008e-003
2.844488e+003, 7.584436e-003
2.846417e+003, 7.053358e-003
2.848345e+003, 8.176133e-003
2.850274e+003, 9.166567e-003
2.852202e+003, 9.243181e-003
2.854131e+003, 9.575796e-003
2.856059e+003, 9.459247e-003
2.857988e+003, 8.160471e-003
2.859916e+003, 7.689011e-003
2.861844e+003, 8.139255e-003
2.863773e+003, 8.456930e-003
2.865701e+003, 8.279247e-003
2.867630e+003, 7.432436e-003
2.869558e+003, 7.763869e-003
2.871487e+003, 8.212355e-003
2.873415e+003, 8.657631e-003
2.875344e+003, 8.996519e-003
2.877272e+003, 8.967111e-003
2.879201e+003, 9.671478e-003
2.881129e+003, 9.412747e-003
2.883058e+003, 9.126880e-003
2.884986e+003, 8.948305e-003
2.886915e+003, 8.827408e-003
2.888843e+003, 9.192146e-003
2.890771e+003, 9.876451e-003
2.892700e+003, 9.638387e-003
2.894628e+003, 8.965169e-003
2.896557e+003, 9.354305e-003
2.898485e+003, 9.347679e-003
2.900414e+003, 8.321295e-003
2.902342e+003, 8.780339e-003
2.904271e+003, 9.381597e-003
2.906199e+003, 1.015127e-002
2.908128e+003, 1.098862e-002
2.910056e+003, 9.585723e-003
2.911985e+003, 8.840544e-003
2.913913e+003, 9.757393e-003
2.915842e+003, 1.082690e-002
2.917770e+003, 1.230877e-002
2.919698e+003, 1.263640e-002
2.921627e+003, 1.142940e-002
2.923555e+003, 1.149652e-002
2.925484e+003, 1.236173e-002
2.927412e+003, 1.189285e-002
2.929341e+003, 9.798922e-003
2.931269e+003, 9.748910e-003
2.933198e+003, 1.028180e-002
2.935126e+003, 1.064655e-002
2.937055e+003, 1.121121e-002
2.938983e+003, 1.106550e-002
2.940912e+003, 1.104651e-002
2.942840e+003, 1.077146e-002
2.944769e+003, 1.022681e-002
2.946697e+003, 9.955456e-003
2.948625e+003, 8.992222e-003
2.950554e+003, 8.127540e-003
2.952482e+003, 7.627754e-003
2.954411e+003, 7.416810e-003
2.956339e+003, 6.953970e-003
2.958268e+003, 7.740398e-003
2.960196e+003, 7.926724e-003
2.962125e+003, 8.280748e-003
2.964053e+003, 9.325110e-003
2.965982e+003, 1.029512e-002
2.967910e+003, 9.475864e-003
2.969839e+003, 8.895349e-003
2.971767e+003, 9.860484e-003
2.973696e+003, 9.377226e-003
2.975624e+003, 7.551897e-003
2.977552e+003, 7.336164e-003
2.979481e+003, 8.366289e-003
2.981409e+003, 9.320460e-003
2.983338e+003, 9.497989e-003
2.985266e+003, 9.534869e-003
2.987195e+003, 9.460696e-003
2.989123e+003, 9.658902e-003
2.991052e+003, 8.453188e-003
2.992980e+003, 8.438833e-003
2.994909e+003, 1.020680e-002
2.996837e+003, 1.048896e-002
2.998766e+003, 9.617701e-003
3.000694e+003, 9.811681e-003
3.002623e+003, 1.055927e-002
3.004551e+003, 9.527164e-003
3.006479e+003, 9.525760e-003
3.008408e+003, 1.073686e-002
3.010336e+003, 1.047186e-002
3.012265e+003, 9.176794e-003
3.014193e+003, 9.212468e-003
3.016122e+003, 8.895196e-003
3.018050e+003, 8.986806e-003
3.019979e+003, 9.708852e-003
3.021907e+003, 8.564405e-003
3.023836e+003, 8.214840e-003
3.025764e+003, 8.947919e-003
3.027693e+003, 8.843360e-003
3.029621e+003, 8.942578e-003
3.031550e+003, 9.808554e-003
3.033478e+003, 9.358286e-003
3.035406e+003, 8.208411e-003
3.037335e+003, 8.514156e-003
3.039263e+003, 8.269534e-003
3.041192e+003, 7.960889e-003
3.043120e+003, 8.644661e-003
3.045049e+003, 8.753750e-003
3.046977e+003, 8.818874e-003
3.048906e+003, 9.083563e-003
3.050834e+003, 8.274789e-003
3.052763e+003, 8.413749e-003
3.054691e+003, 9.607701e-003
3.056620e+003, 8.908805e-003
3.058548e+003, 9.198901e-003
3.060477e+003, 1.045082e-002
3.062405e+003, 1.019677e-002
3.064333e+003, 8.641935e-003
3.066262e+003, 9.178105e-003
3.068190e+003, 1.000024e-002
3.070119e+003, 9.147804e-003
3.072047e+003, 8.128064e-003
3.073976e+003, 7.550072e-003
3.075904e+003, 7.519257e-003
3.077833e+003, 8.729381e-003
3.079761e+003, 9.779821e-003
3.081690e+003, 9.436523e-003
3.083618e+003, 9.354579e-003
3.085547e+003, 8.788562e-003
3.087475e+003, 7.601025e-003
3.089404e+003, 8.707486e-003
3.091332e+003, 9.158482e-003
3.093260e+003, 8.886286e-003
3.095189e+003, 9.278904e-003
3.097117e+003, 9.060482e-003
3.099046e+003, 8.565984e-003
3.100974e+003, 7.904761e-003
3.102903e+003, 8.710716e-003
3.104831e+003, 8.858420e-003
3.106760e+003, 9.266675e-003
3.108688e+003, 8.817961e-003
3.110617e+003, 8.222073e-003
3.112545e+003, 8.675810e-003
3.114474e+003, 8.991729e-003
3.116402e+003, 9.143782e-003
3.118331e+003, 8.658726e-003
3.120259e+003, 8.433531e-003
3.122188e+003, 8.659400e-003
3.124116e+003, 8.447762e-003
3.126044e+003, 7.901395e-003
3.127973e+003, 8.025342e-003
3.129901e+003, 8.508323e-003
3.131830e+003, 8.446433e-003
3.133758e+003, 8.847049e-003
3.135687e+003, 9.654252e-003
3.137615e+003, 9.198742e-003
3.139544e+003, 9.741061e-003
3.141472e+003, 1.009235e-002
3.143401e+003, 1.030419e-002
3.145329e+003, 8.800911e-003
3.147258e+003, 1.006081e-002
3.149186e+003, 1.133276e-002
3.151115e+003, 1.026429e-002
3.153043e+003, 1.018637e-002
3.154971e+003, 1.125249e-002
3.156900e+003, 1.078028e-002
3.158828e+003, 9.784129e-003
3.160757e+003, 9.524953e-003
3.162685e+003, 1.050966e-002
3.164614e+003, 1.145446e-002
3.166542e+003, 1.065878e-002
3.168471e+003, 1.075873e-002
3.170399e+003, 1.095305e-002
3.172328e+003, 1.039582e-002
3.174256e+003, 1.014098e-002
3.176185e+003, 9.068181e-003
3.178113e+003, 8.618343e-003
3.180042e+003, 9.566635e-003
3.181970e+003, 1.116827e-002
3.183898e+003, 1.056895e-002
3.185827e+003, 9.370611e-003
3.187755e+003, 1.014862e-002
3.189684e+003, 1.293704e-002
3.191612e+003, 1.260149e-002
3.193541e+003, 1.106580e-002
3.195469e+003, 1.231601e-002
3.197398e+003, 1.170276e-002
3.199326e+003, 1.085318e-002
3.201255e+003, 1.038247e-002
3.203183e+003, 8.835618e-003
3.205112e+003, 8.510412e-003
3.207040e+003, 9.914106e-003
3.208969e+003, 1.074842e-002
3.210897e+003, 1.044823e-002
3.212825e+003, 1.023275e-002
3.214754e+003, 9.675298e-003
3.216682e+003, 8.019784e-003
3.218611e+003, 9.563877e-003
3.220539e+003, 1.253718e-002
3.222468e+003, 1.294364e-002
3.224396e+003, 1.057672e-002
3.226325e+003, 9.439793e-003
3.228253e+003, 1.100016e-002
3.230182e+003, 1.257130e-002
3.232110e+003, 1.296652e-002
3.234039e+003, 1.190104e-002
3.235967e+003, 1.100107e-002
3.237896e+003, 1.205528e-002
3.239824e+003, 1.249533e-002
3.241752e+003, 1.131931e-002
3.243681e+003, 9.386090e-003
3.245609e+003, 9.816373e-003
3.247538e+003, 1.180261e-002
3.249466e+003, 1.219392e-002
3.251395e+003, 1.076244e-002
3.253323e+003, 1.003703e-002
3.255252e+003, 1.150294e-002
3.257180e+003, 1.241731e-002
3.259109e+003, 1.330343e-002
3.261037e+003, 1.209457e-002
3.262966e+003, 1.179846e-002
3.264894e+003, 1.279601e-002
3.266823e+003, 1.295817e-002
3.268751e+003, 1.260774e-002
3.270679e+003, 1.296207e-002
3.272608e+003, 1.384684e-002
3.274536e+003, 1.535695e-002
3.276465e+003, 1.449457e-002
3.278393e+003, 1.385957e-002
3.280322e+003, 1.262973e-002
3.282250e+003, 1.166480e-002
3.284179e+003, 1.191997e-002
3.286107e+003, 1.391548e-002
3.288036e+003, 1.389017e-002
3.289964e+003, 1.301159e-002
3.291893e+003, 1.266592e-002
3.293821e+003, 1.327380e-002
3.295750e+003, 1.410279e-002
3.297678e+003, 1.512169e-002
3.299606e+003, 1.435031e-002
3.301535e+003, 1.337187e-002
3.303463e+003, 1.456164e-002
3.305392e+003, 1.349000e-002
3.307320e+003, 1.145219e-002
3.309249e+003, 1.020349e-002
3.311177e+003, 1.069854e-002
3.313106e+003, 1.359755e-002
3.315034e+003, 1.348519e-002
3.316963e+003, 1.205489e-002
3.318891e+003, 1.248415e-002
3.320820e+003, 1.235636e-002
3.322748e+003, 1.223266e-002
3.324677e+003, 1.269766e-002
3.326605e+003, 1.258562e-002
3.328533e+003, 1.264886e-002
3.330462e+003, 1.174190e-002
3.332390e+003, 1.182394e-002
3.334319e+003, 1.282772e-002
3.336247e+003, 1.238590e-002
3.338176e+003, 1.374859e-002
3.340104e+003, 1.507225e-002
3.342033e+003, 1.411935e-002
3.343961e+003, 1.437510e-002
3.345890e+003, 1.477819e-002
3.347818e+003, 1.538356e-002
3.349747e+003, 1.598544e-002
3.351675e+003, 1.705702e-002
3.353604e+003, 1.654033e-002
3.355532e+003, 1.545252e-002
3.357460e+003, 1.494247e-002
3.359389e+003, 1.516411e-002
3.361317e+003, 1.684878e-002
3.363246e+003, 1.560674e-002
3.365174e+003, 1.392747e-002
3.367103e+003, 1.422405e-002
3.369031e+003, 1.648069e-002
3.370960e+003, 1.752454e-002
3.372888e+003, 1.569475e-002
3.374817e+003, 1.495371e-002
3.376745e+003, 1.496243e-002
3.378674e+003, 1.566605e-002
3.380602e+003, 1.661148e-002
3.382531e+003, 1.608071e-002
3.384459e+003, 1.713617e-002
3.386387e+003, 1.715854e-002
3.388316e+003, 1.726015e-002
3.390244e+003, 1.641606e-002
3.392173e+003, 1.669567e-002
3.394101e+003, 1.670896e-002
3.396030e+003, 1.499967e-002
3.397958e+003, 1.565591e-002
3.399887e+003, 1.689491e-002
3.401815e+003, 1.737553e-002
3.403744e+003, 1.776813e-002
3.405672e+003, 1.733494e-002
3.407601e+003, 1.555364e-002
3.409529e+003, 1.320016e-002
3.411458e+003, 1.352715e-002
3.413386e+003, 1.489181e-002
3.415314e+003, 1.656368e-002
3.417243e+003, 1.579662e-002
3.419171e+003, 1.341023e-002
3.421100e+003, 1.365609e-002
3.423028e+003, 1.491661e-002
3.424957e+003, 1.703904e-002
3.426885e+003, 1.619475e-002
3.428814e+003, 1.491894e-002
3.430742e+003, 1.483427e-002
3.432671e+003, 1.659179e-002
3.434599e+003, 1.832976e-002
3.436528e+003, 1.877179e-002
3.438456e+003, 1.883766e-002
3.440385e+003, 1.782826e-002
3.442313e+003, 1.657099e-002
3.444241e+003, 1.571985e-002
3.446170e+003, 1.451295e-002
3.448098e+003, 1.397517e-002
3.450027e+003, 1.491366e-002
3.451955e+003, 1.467036e-002
3.453884e+003, 1.479324e-002
3.455812e+003, 1.490934e-002
3.457741e+003, 1.287322e-002
3.459669e+003, 1.384974e-002
3.461598e+003, 1.632346e-002
3.463526e+003, 1.587482e-002
3.465455e+003, 1.529202e-002
3.467383e+003, 1.656134e-002
3.469312e+003, 1.577987e-002
3.471240e+003, 1.495889e-002
3.473168e+003, 1.523940e-002
3.475097e+003, 1.606008e-002
3.477025e+003, 1.657757e-002
3.478954e+003, 1.489247e-002
3.480882e+003, 1.235904e-002
3.482811e+003, 1.327542e-002
3.484739e+003, 1.562450e-002
3.486668e+003, 1.568319e-002
3.488596e+003, 1.495909e-002
3.490525e+003, 1.407497e-002
3.492453e+003, 1.492561e-002
3.494382e+003, 1.621569e-002
3.496310e+003, 1.631330e-002
3.498239e+003, 1.704448e-002
3.500167e+003, 1.792100e-002
3.502095e+003, 1.564433e-002
3.504024e+003, 1.384648e-002
3.505952e+003, 1.442439e-002
3.507881e+003, 1.683222e-002
3.509809e+003, 1.744072e-002
3.511738e+003, 1.520665e-002
3.513666e+003, 1.335075e-002
3.515595e+003, 1.444417e-002
3.517523e+003, 1.672365e-002
3.519452e+003, 1.628595e-002
3.521380e+003, 1.417954e-002
3.523309e+003, 1.450887e-002
3.525237e+003, 1.636134e-002
3.527166e+003, 1.527998e-002
3.529094e+003, 1.404612e-002
3.531022e+003, 1.634625e-002
3.532951e+003, 1.564172e-002
3.534879e+003, 1.362463e-002
3.536808e+003, 1.595439e-002
3.538736e+003, 1.641372e-002
3.540665e+003, 1.578479e-002
3.542593e+003, 1.488493e-002
3.544522e+003, 1.505161e-002
3.546450e+003, 1.742660e-002
3.548379e+003, 1.894901e-002
3.550307e+003, 1.794954e-002
3.552236e+003, 1.601286e-002
3.554164e+003, 1.430762e-002
3.556093e+003, 1.603322e-002
3.558021e+003, 1.737926e-002
3.559949e+003, 1.532042e-002
3.561878e+003, 1.672495e-002
3.563806e+003, 1.751917e-002
3.565735e+003, 1.626745e-002
3.567663e+003, 1.695777e-002
3.569592e+003, 1.837635e-002
3.571520e+003, 1.661051e-002
3.573449e+003, 1.572925e-002
3.575377e+003, 1.896974e-002
3.577306e+003, 2.039557e-002
3.579234e+003, 1.659829e-002
3.581163e+003, 1.440585e-002
3.583091e+003, 1.543973e-002
3.585020e+003, 1.581517e-002
3.586948e+003, 1.666404e-002
3.588876e+003, 1.605844e-002
3.590805e+003, 1.346365e-002
3.592733e+003, 1.237121e-002
3.594662e+003, 1.452250e-002
3.596590e+003, 1.468496e-002
3.598519e+003, 1.327691e-002
3.600447e+003, 1.265465e-002
3.602376e+003, 1.306137e-002
3.604304e+003, 1.214210e-002
3.606233e+003, 1.222426e-002
3.608161e+003, 1.525259e-002
3.610090e+003, 1.468198e-002
3.612018e+003, 1.406352e-002
3.613947e+003, 1.335444e-002
3.615875e+003, 9.987675e-003
3.617803e+003, 8.567640e-003
3.619732e+003, 1.078905e-002
3.621660e+003, 1.319786e-002
3.623589e+003, 1.376826e-002
3.625517e+003, 1.222748e-002
3.627446e+003, 1.201358e-002
3.629374e+003, 1.524428e-002
3.631303e+003, 1.698539e-002
3.633231e+003, 1.414968e-002
3.635160e+003, 1.202001e-002
3.637088e+003, 1.196561e-002
3.639017e+003, 1.112104e-002
3.640945e+003, 1.269042e-002
3.642874e+003, 1.548558e-002
3.644802e+003, 1.479664e-002
3.646730e+003, 1.335692e-002
3.648659e+003, 1.301099e-002
3.650587e+003, 1.197655e-002
3.652516e+003, 1.390423e-002
3.654444e+003, 1.758989e-002
3.656373e+003, 2.431561e-002
3.658301e+003, 4.260978e-002
3.660230e+003, 5.744452e-002
3.662158e+003, 4.088372e-002
3.664087e+003, 2.201384e-002
3.666015e+003, 1.875223e-002
3.667944e+003, 1.903453e-002
3.669872e+003, 2.846074e-002
3.671801e+003, 5.553719e-002
3.673729e+003, 1.105761e-001
3.675657e+003, 1.524893e-001
3.677586e+003, 1.052185e-001
3.679514e+003, 3.357624e-002
3.681443e+003, 9.844644e-003
3.683371e+003, 7.053724e-003
3.685300e+003, 5.296398e-003
3.687228e+003, 3.180047e-003
3.689157e+003, 2.511256e-003
3.691085e+003, 3.634097e-003
3.693014e+003, 6.480011e-003
3.694942e+003, 6.261224e-003
3.696871e+003, 5.683407e-003
3.698799e+003, 3.663670e-003
3.700728e+003, 3.499982e-003
3.702656e+003, 4.570770e-003
3.704584e+003, 4.574085e-003
3.706513e+003, 4.375927e-003
3.708441e+003, 6.739116e-003
3.710370e+003, 8.782624e-003
3.712298e+003, 8.775541e-003
3.714227e+003, 7.609568e-003
3.716155e+003, 8.546189e-003
3.718084e+003, 6.430372e-003
3.720012e+003, 4.754667e-003
3.721941e+003, 5.398117e-003
3.723869e+003, 5.879275e-003
3.725798e+003, 6.888123e-003
3.727726e+003, 7.375984e-003
3.729655e+003, 5.444405e-003
3.731583e+003, 3.105464e-003
3.733511e+003, 4.551334e-003
3.735440e+003, 3.186689e-003
3.737368e+003, 3.579100e-003
3.739297e+003, 6.229847e-003
3.741225e+003, 6.684202e-003
3.743154e+003, 5.883456e-003
3.745082e+003, 5.268408e-003
3.747011e+003, 7.510431e-003
3.748939e+003, 7.694139e-003
3.750868e+003, 4.010961e-003
3.752796e+003, 3.835757e-003
3.754725e+003, 7.738075e-003
3.756653e+003, 9.902743e-003
3.758582e+003, 1.016208e-002
3.760510e+003, 9.510517e-003
3.762438e+003, 8.287945e-003
3.764367e+003, 7.001818e-003
3.766295e+003, 8.223694e-003
3.768224e+003, 6.089287e-003
3.770152e+003, 6.368903e-003
3.772081e+003, 8.745456e-003
3.774009e+003, 7.873803e-003
3.775938e+003, 6.647884e-003
3.777866e+003, 8.850137e-003
3.779795e+003, 9.381123e-003
3.781723e+003, 9.460778e-003
3.783652e+003, 1.020835e-002
3.785580e+003, 1.131698e-002
3.787509e+003, 7.849683e-003
3.789437e+003, 5.254856e-003
3.791365e+003, 7.294246e-003
3.793294e+003, 6.768955e-003
3.795222e+003, 4.925216e-003
3.797151e+003, 7.714071e-003
3.799079e+003, 8.966600e-003
3.801008e+003, 8.501883e-003
3.802936e+003, 8.734223e-003
3.804865e+003, 7.375801e-003
3.806793e+003, 5.704600e-003
3.808722e+003, 6.600046e-003
3.810650e+003, 9.821675e-003
3.812579e+003, 1.136849e-002
3.814507e+003, 1.055230e-002
3.816436e+003, 9.454678e-003
3.818364e+003, 1.097282e-002
3.820292e+003, 1.360195e-002
3.822221e+003, 1.190925e-002
3.824149e+003, 9.942021e-003
3.826078e+003, 8.800931e-003
3.828006e+003, 8.101000e-003
3.829935e+003, 6.078001e-003
3.831863e+003, 5.430966e-003
3.833792e+003, 7.216957e-003
3.835720e+003, 7.987763e-003
3.837649e+003, 6.247208e-003
3.839577e+003, 7.314139e-003
3.841506e+003, 8.541756e-003
3.843434e+003, 8.061303e-003
3.845363e+003, 6.146951e-003
3.847291e+003, 5.801396e-003
3.849219e+003, 6.274293e-003
3.851148e+003, 6.471706e-003
3.853076e+003, 4.591493e-003
3.855005e+003, 5.792968e-003
3.856933e+003, 6.596548e-003
3.858862e+003, 6.545513e-003
3.860790e+003, 5.477767e-003
3.862719e+003, 5.352400e-003
3.864647e+003, 4.797005e-003
3.866576e+003, 4.150582e-003
3.868504e+003, 4.845477e-003
3.870433e+003, 4.333342e-003
3.872361e+003, 4.900945e-003
3.874290e+003, 8.274414e-003
3.876218e+003, 8.011763e-003
3.878146e+003, 8.235208e-003
3.880075e+003, 6.978039e-003
3.882003e+003, 8.407674e-003
3.883932e+003, 8.823784e-003
3.885860e+003, 7.382506e-003
3.887789e+003, 8.467454e-003
3.889717e+003, 8.945152e-003
3.891646e+003, 1.056831e-002
3.893574e+003, 9.836460e-003
3.895503e+003, 9.869033e-003
3.897431e+003, 9.427636e-003
3.899360e+003, 7.939685e-003
3.901288e+003, 7.213117e-003
3.903217e+003, 6.554239e-003
3.905145e+003, 6.990185e-003
3.907073e+003, 9.722670e-003
3.909002e+003, 9.917920e-003
3.910930e+003, 9.274984e-003
3.912859e+003, 8.545087e-003
3.914787e+003, 9.912260e-003
3.916716e+003, 1.032662e-002
3.918644e+003, 8.088669e-003
3.920573e+003, 9.042168e-003
3.922501e+003, 9.522312e-003
3.924430e+003, 9.966543e-003
3.926358e+003, 9.967765e-003
3.928287e+003, 7.150554e-003
3.930215e+003, 6.253493e-003
3.932144e+003, 4.132872e-003
3.934072e+003, 4.534151e-003
3.936000e+003, 4.913105e-003
3.937929e+003, 6.070278e-003
3.939857e+003, 8.247793e-003
3.941786e+003, 8.000322e-003
3.943714e+003, 8.310228e-003
3.945643e+003, 9.743386e-003
3.947571e+003, 9.748705e-003
3.949500e+003, 8.050408e-003
3.951428e+003, 6.866792e-003
3.953357e+003, 8.948229e-003
3.955285e+003, 8.963155e-003
3.957214e+003, 9.895789e-003
3.959142e+003, 1.440080e-002
3.961071e+003, 1.202188e-002
3.962999e+003, 8.314817e-003
3.964927e+003, 9.591346e-003
3.966856e+003, 1.074272e-002
3.968784e+003, 1.185429e-002
3.970713e+003, 1.132029e-002
3.972641e+003, 1.125636e-002
3.974570e+003, 1.140503e-002
3.976498e+003, 1.046695e-002
3.978427e+003, 7.508589e-003
3.980355e+003, 7.049923e-003
3.982284e+003, 8.400118e-003
3.984212e+003, 9.419271e-003
3.986141e+003, 7.826126e-003
3.988069e+003, 7.569007e-003
3.989998e+003, 6.814159e-003
3.991926e+003, 9.018741e-003
3.993854e+003, 1.125646e-002
3.995783e+003, 9.521965e-003
3.997711e+003, 8.673914e-003
3.999640e+003, 8.677511e-003
4.001568e+003, 0.000000e+000
##END=



