##NAMES=Actinolite
##RRUFFID=R040063
##IDEAL CHEMISTRY=Ca_2_(Mg_4.5-2.5_Fe^2+^_0.5-2.5_)_&#931;=5_Si_8_O_22_(OH)_2_
##LOCALITY=Harford County, Maryland, USA
##OWNER=RRUFF
##SOURCE=University of Arizona Mineral Museum
##DESCRIPTION=Mass of green acicular to bladed crystals associated with chlorite
##STATUS=The identification of this mineral has been confirmed by X-ray diffraction and chemical analysis
##URL=rruff.info/R040063
5, 59
5.01, 57
5.02, 35
5.03, 47
5.04, 61
5.05, 57
5.06, 57
5.07, 66
5.08, 64
5.09, 60
5.1, 61
5.11, 76
5.12, 54
5.13, 63
5.14, 43
5.15, 56
5.16, 49
5.17, 55
5.18, 67
5.19, 73
5.2, 50
5.21, 51
5.22, 59
5.23, 51
5.24, 42
5.25, 68
5.26, 41
5.27, 46
5.28, 48
5.29, 56
5.3, 54
5.31, 52
5.32, 51
5.33, 54
5.34, 54
5.35, 48
5.36, 50
5.37, 52
5.38, 52
5.39, 42
5.4, 64
5.41, 69
5.42, 55
5.43, 62
5.44, 61
5.45, 65
5.46, 59
5.47, 64
5.48, 66
5.49, 41
5.5, 47
5.51, 52
5.52, 59
5.53, 49
5.54, 72
5.55, 49
5.56, 67
5.57, 64
5.58, 51
5.59, 57
5.6, 72
5.61, 52
5.62, 58
5.63, 66
5.64, 59
5.65, 65
5.66, 64
5.67, 68
5.68, 60
5.69, 60
5.7, 52
5.71, 57
5.72, 51
5.73, 59
5.74, 58
5.75, 62
5.76, 66
5.77, 51
5.78, 60
5.79, 59
5.8, 64
5.81, 56
5.82, 65
5.83, 63
5.84, 61
5.85, 71
5.86, 67
5.87, 69
5.88, 64
5.89, 58
5.9, 70
5.91, 57
5.92, 56
5.93, 64
5.94, 56
5.95, 58
5.96, 57
5.97, 56
5.98, 63
5.99, 55
6, 53
6.01, 64
6.02, 67
6.03, 72
6.04, 60
6.05, 66
6.06, 59
6.07, 59
6.08, 71
6.09, 79
6.1, 65
6.11, 74
6.12, 75
6.13, 88
6.14, 95
6.15, 90
6.16, 76
6.17, 96
6.18, 92
6.19, 70
6.2, 100
6.21, 104
6.22, 113
6.23, 142
6.24, 147
6.25, 140
6.26, 207
6.27, 213
6.28, 208
6.29, 212
6.3, 185
6.31, 168
6.32, 111
6.33, 102
6.34, 82
6.35, 104
6.36, 79
6.37, 61
6.38, 65
6.39, 68
6.4, 66
6.41, 56
6.42, 68
6.43, 74
6.44, 74
6.45, 66
6.46, 60
6.47, 75
6.48, 56
6.49, 78
6.5, 59
6.51, 66
6.52, 70
6.53, 62
6.54, 62
6.55, 70
6.56, 61
6.57, 61
6.58, 70
6.59, 65
6.6, 59
6.61, 65
6.62, 67
6.63, 66
6.64, 72
6.65, 60
6.66, 53
6.67, 55
6.68, 60
6.69, 55
6.7, 64
6.71, 76
6.72, 59
6.73, 69
6.74, 49
6.75, 52
6.76, 50
6.77, 57
6.78, 61
6.79, 62
6.8, 51
6.81, 62
6.82, 61
6.83, 77
6.84, 56
6.85, 61
6.86, 45
6.87, 62
6.88, 51
6.89, 48
6.9, 57
6.91, 51
6.92, 54
6.93, 58
6.94, 49
6.95, 56
6.96, 44
6.97, 52
6.98, 55
6.99, 47
7, 44
7.01, 53
7.02, 50
7.03, 50
7.04, 54
7.05, 60
7.06, 53
7.07, 48
7.08, 49
7.09, 52
7.1, 52
7.11, 49
7.12, 51
7.13, 56
7.14, 48
7.15, 51
7.16, 41
7.17, 48
7.18, 50
7.19, 45
7.2, 53
7.21, 59
7.22, 41
7.23, 49
7.24, 50
7.25, 37
7.26, 61
7.27, 54
7.28, 51
7.29, 52
7.3, 55
7.31, 60
7.32, 56
7.33, 50
7.34, 55
7.35, 51
7.36, 58
7.37, 52
7.38, 48
7.39, 57
7.4, 43
7.41, 42
7.42, 36
7.43, 55
7.44, 56
7.45, 57
7.46, 57
7.47, 48
7.48, 53
7.49, 48
7.5, 53
7.51, 43
7.52, 59
7.53, 49
7.54, 54
7.55, 48
7.56, 43
7.57, 58
7.58, 51
7.59, 40
7.6, 48
7.61, 61
7.62, 55
7.63, 53
7.64, 42
7.65, 53
7.66, 60
7.67, 55
7.68, 47
7.69, 61
7.7, 63
7.71, 52
7.72, 48
7.73, 59
7.74, 64
7.75, 43
7.76, 51
7.77, 41
7.78, 51
7.79, 47
7.8, 40
7.81, 44
7.82, 44
7.83, 48
7.84, 45
7.85, 43
7.86, 52
7.87, 38
7.88, 58
7.89, 52
7.9, 62
7.91, 45
7.92, 37
7.93, 44
7.94, 45
7.95, 57
7.96, 36
7.97, 41
7.98, 46
7.99, 46
8, 64
8.01, 49
8.02, 44
8.03, 48
8.04, 45
8.05, 42
8.06, 40
8.07, 54
8.08, 60
8.09, 43
8.1, 48
8.11, 39
8.12, 47
8.13, 50
8.14, 52
8.15, 29
8.16, 48
8.17, 39
8.18, 50
8.19, 49
8.2, 52
8.21, 46
8.22, 59
8.23, 53
8.24, 60
8.25, 46
8.26, 41
8.27, 31
8.28, 47
8.29, 36
8.3, 55
8.31, 47
8.32, 65
8.33, 46
8.34, 40
8.35, 47
8.36, 59
8.37, 43
8.38, 39
8.39, 46
8.4, 35
8.41, 44
8.42, 49
8.43, 49
8.44, 46
8.45, 46
8.46, 43
8.47, 36
8.48, 48
8.49, 51
8.5, 55
8.51, 63
8.52, 49
8.53, 59
8.54, 58
8.55, 71
8.56, 67
8.57, 77
8.58, 76
8.59, 63
8.6, 60
8.61, 74
8.62, 61
8.63, 70
8.64, 51
8.65, 43
8.66, 55
8.67, 53
8.68, 64
8.69, 50
8.7, 44
8.71, 50
8.72, 51
8.73, 53
8.74, 49
8.75, 39
8.76, 44
8.77, 53
8.78, 42
8.79, 56
8.8, 62
8.81, 52
8.82, 45
8.83, 45
8.84, 41
8.85, 55
8.86, 50
8.87, 58
8.88, 51
8.89, 44
8.9, 54
8.91, 54
8.92, 66
8.93, 56
8.94, 50
8.95, 48
8.96, 47
8.97, 56
8.98, 46
8.99, 59
9, 57
9.01, 42
9.02, 49
9.03, 43
9.04, 45
9.05, 57
9.06, 56
9.07, 55
9.08, 60
9.09, 55
9.1, 50
9.11, 67
9.12, 55
9.13, 61
9.14, 68
9.15, 60
9.16, 67
9.17, 65
9.18, 62
9.19, 73
9.2, 83
9.21, 84
9.22, 77
9.23, 102
9.24, 82
9.25, 94
9.26, 89
9.27, 100
9.28, 89
9.29, 94
9.3, 141
9.31, 132
9.32, 131
9.33, 118
9.34, 128
9.35, 185
9.36, 206
9.37, 206
9.38, 232
9.39, 272
9.4, 302
9.41, 342
9.42, 378
9.43, 508
9.44, 563
9.45, 684
9.46, 794
9.47, 952
9.48, 1102
9.49, 1341
9.5, 1715
9.51, 1810
9.52, 1812
9.53, 1492
9.54, 1158
9.55, 848
9.56, 545
9.57, 397
9.58, 289
9.59, 252
9.6, 171
9.61, 161
9.62, 152
9.63, 143
9.64, 127
9.65, 130
9.66, 103
9.67, 101
9.68, 104
9.69, 99
9.7, 89
9.71, 91
9.72, 98
9.73, 95
9.74, 108
9.75, 68
9.76, 110
9.77, 75
9.78, 103
9.79, 101
9.8, 128
9.81, 134
9.82, 121
9.83, 124
9.84, 162
9.85, 121
9.86, 116
9.87, 89
9.88, 95
9.89, 69
9.9, 52
9.91, 55
9.92, 40
9.93, 51
9.94, 59
9.95, 62
9.96, 51
9.97, 48
9.98, 53
9.99, 51
10, 58
10.01, 65
10.02, 54
10.03, 42
10.04, 47
10.05, 61
10.06, 42
10.07, 49
10.08, 52
10.09, 39
10.1, 50
10.11, 53
10.12, 44
10.13, 47
10.14, 48
10.15, 40
10.16, 61
10.17, 50
10.18, 51
10.19, 55
10.2, 50
10.21, 66
10.22, 66
10.23, 46
10.24, 45
10.25, 47
10.26, 54
10.27, 52
10.28, 54
10.29, 48
10.3, 55
10.31, 53
10.32, 48
10.33, 57
10.34, 59
10.35, 60
10.36, 63
10.37, 57
10.38, 87
10.39, 75
10.4, 90
10.41, 91
10.42, 110
10.43, 140
10.44, 129
10.45, 147
10.46, 146
10.47, 144
10.48, 163
10.49, 230
10.5, 293
10.51, 280
10.52, 462
10.53, 544
10.54, 727
10.55, 933
10.56, 998
10.57, 905
10.58, 757
10.59, 555
10.6, 340
10.61, 223
10.62, 176
10.63, 111
10.64, 105
10.65, 70
10.66, 74
10.67, 63
10.68, 60
10.69, 73
10.7, 57
10.71, 61
10.72, 49
10.73, 45
10.74, 45
10.75, 60
10.76, 49
10.77, 52
10.78, 42
10.79, 52
10.8, 40
10.81, 71
10.82, 41
10.83, 50
10.84, 37
10.85, 52
10.86, 44
10.87, 52
10.88, 47
10.89, 45
10.9, 40
10.91, 41
10.92, 38
10.93, 41
10.94, 41
10.95, 32
10.96, 44
10.97, 45
10.98, 46
10.99, 37
11, 45
11.01, 36
11.02, 42
11.03, 39
11.04, 41
11.05, 42
11.06, 41
11.07, 40
11.08, 53
11.09, 51
11.1, 41
11.11, 45
11.12, 48
11.13, 62
11.14, 36
11.15, 40
11.16, 41
11.17, 51
11.18, 41
11.19, 44
11.2, 42
11.21, 42
11.22, 49
11.23, 47
11.24, 55
11.25, 44
11.26, 40
11.27, 42
11.28, 47
11.29, 36
11.3, 47
11.31, 53
11.32, 43
11.33, 43
11.34, 47
11.35, 42
11.36, 47
11.37, 42
11.38, 35
11.39, 40
11.4, 41
11.41, 39
11.42, 40
11.43, 38
11.44, 54
11.45, 35
11.46, 51
11.47, 56
11.48, 51
11.49, 40
11.5, 53
11.51, 49
11.52, 40
11.53, 35
11.54, 47
11.55, 47
11.56, 50
11.57, 44
11.58, 35
11.59, 42
11.6, 41
11.61, 36
11.62, 35
11.63, 45
11.64, 40
11.65, 28
11.66, 51
11.67, 32
11.68, 46
11.69, 19
11.7, 31
11.71, 40
11.72, 48
11.73, 29
11.74, 35
11.75, 31
11.76, 38
11.77, 47
11.78, 38
11.79, 43
11.8, 40
11.81, 44
11.82, 29
11.83, 36
11.84, 46
11.85, 43
11.86, 44
11.87, 34
11.88, 40
11.89, 33
11.9, 32
11.91, 54
11.92, 50
11.93, 37
11.94, 39
11.95, 51
11.96, 33
11.97, 65
11.98, 51
11.99, 30
12, 35
12.01, 44
12.02, 38
12.03, 35
12.04, 47
12.05, 50
12.06, 42
12.07, 40
12.08, 55
12.09, 42
12.1, 44
12.11, 55
12.12, 44
12.13, 43
12.14, 40
12.15, 35
12.16, 47
12.17, 48
12.18, 37
12.19, 45
12.2, 36
12.21, 51
12.22, 33
12.23, 39
12.24, 49
12.25, 36
12.26, 31
12.27, 44
12.28, 46
12.29, 48
12.3, 49
12.31, 39
12.32, 53
12.33, 67
12.34, 50
12.35, 41
12.36, 59
12.37, 46
12.38, 41
12.39, 58
12.4, 71
12.41, 61
12.42, 65
12.43, 71
12.44, 80
12.45, 96
12.46, 101
12.47, 113
12.48, 152
12.49, 193
12.5, 215
12.51, 247
12.52, 290
12.53, 274
12.54, 258
12.55, 197
12.56, 172
12.57, 146
12.58, 106
12.59, 77
12.6, 60
12.61, 46
12.62, 60
12.63, 58
12.64, 47
12.65, 53
12.66, 53
12.67, 49
12.68, 39
12.69, 42
12.7, 48
12.71, 33
12.72, 45
12.73, 27
12.74, 46
12.75, 43
12.76, 33
12.77, 45
12.78, 36
12.79, 39
12.8, 38
12.81, 38
12.82, 51
12.83, 47
12.84, 43
12.85, 33
12.86, 47
12.87, 45
12.88, 43
12.89, 45
12.9, 37
12.91, 35
12.92, 42
12.93, 40
12.94, 49
12.95, 39
12.96, 33
12.97, 38
12.98, 29
12.99, 34
13, 40
13.01, 34
13.02, 39
13.03, 30
13.04, 44
13.05, 36
13.06, 41
13.07, 49
13.08, 42
13.09, 35
13.1, 38
13.11, 32
13.12, 42
13.13, 56
13.14, 41
13.15, 37
13.16, 27
13.17, 42
13.18, 32
13.19, 38
13.2, 27
13.21, 48
13.22, 45
13.23, 38
13.24, 44
13.25, 32
13.26, 33
13.27, 47
13.28, 28
13.29, 35
13.3, 37
13.31, 28
13.32, 51
13.33, 48
13.34, 37
13.35, 38
13.36, 33
13.37, 37
13.38, 38
13.39, 48
13.4, 34
13.41, 47
13.42, 37
13.43, 29
13.44, 53
13.45, 39
13.46, 33
13.47, 47
13.48, 45
13.49, 43
13.5, 41
13.51, 44
13.52, 37
13.53, 41
13.54, 36
13.55, 44
13.56, 43
13.57, 44
13.58, 38
13.59, 36
13.6, 34
13.61, 45
13.62, 44
13.63, 33
13.64, 32
13.65, 37
13.66, 40
13.67, 46
13.68, 37
13.69, 29
13.7, 35
13.71, 33
13.72, 31
13.73, 36
13.74, 30
13.75, 44
13.76, 32
13.77, 37
13.78, 39
13.79, 40
13.8, 28
13.81, 45
13.82, 37
13.83, 38
13.84, 47
13.85, 44
13.86, 41
13.87, 44
13.88, 32
13.89, 31
13.9, 38
13.91, 34
13.92, 44
13.93, 42
13.94, 52
13.95, 38
13.96, 24
13.97, 39
13.98, 46
13.99, 34
14, 43
14.01, 36
14.02, 45
14.03, 45
14.04, 27
14.05, 36
14.06, 30
14.07, 37
14.08, 40
14.09, 34
14.1, 33
14.11, 37
14.12, 38
14.13, 48
14.14, 29
14.15, 39
14.16, 38
14.17, 39
14.18, 40
14.19, 40
14.2, 37
14.21, 43
14.22, 49
14.23, 40
14.24, 30
14.25, 30
14.26, 30
14.27, 36
14.28, 37
14.29, 50
14.3, 36
14.31, 32
14.32, 43
14.33, 50
14.34, 46
14.35, 45
14.36, 37
14.37, 36
14.38, 31
14.39, 39
14.4, 35
14.41, 46
14.42, 35
14.43, 32
14.44, 39
14.45, 39
14.46, 34
14.47, 40
14.48, 38
14.49, 45
14.5, 42
14.51, 39
14.52, 35
14.53, 39
14.54, 38
14.55, 49
14.56, 26
14.57, 27
14.58, 33
14.59, 43
14.6, 41
14.61, 19
14.62, 34
14.63, 24
14.64, 40
14.65, 52
14.66, 40
14.67, 51
14.68, 41
14.69, 38
14.7, 41
14.71, 38
14.72, 38
14.73, 34
14.74, 39
14.75, 33
14.76, 49
14.77, 40
14.78, 42
14.79, 31
14.8, 29
14.81, 40
14.82, 38
14.83, 37
14.84, 28
14.85, 47
14.86, 37
14.87, 43
14.88, 40
14.89, 35
14.9, 40
14.91, 40
14.92, 44
14.93, 40
14.94, 31
14.95, 51
14.96, 32
14.97, 29
14.98, 49
14.99, 46
15, 43
15.01, 34
15.02, 26
15.03, 40
15.04, 41
15.05, 28
15.06, 35
15.07, 45
15.08, 35
15.09, 33
15.1, 43
15.11, 41
15.12, 37
15.13, 29
15.14, 33
15.15, 41
15.16, 42
15.17, 36
15.18, 34
15.19, 37
15.2, 36
15.21, 32
15.22, 50
15.23, 37
15.24, 40
15.25, 32
15.26, 34
15.27, 50
15.28, 36
15.29, 37
15.3, 37
15.31, 37
15.32, 29
15.33, 32
15.34, 35
15.35, 37
15.36, 42
15.37, 31
15.38, 37
15.39, 29
15.4, 38
15.41, 41
15.42, 32
15.43, 43
15.44, 38
15.45, 35
15.46, 34
15.47, 36
15.48, 31
15.49, 33
15.5, 30
15.51, 37
15.52, 39
15.53, 42
15.54, 27
15.55, 32
15.56, 37
15.57, 41
15.58, 34
15.59, 37
15.6, 35
15.61, 36
15.62, 46
15.63, 23
15.64, 37
15.65, 34
15.66, 38
15.67, 29
15.68, 46
15.69, 42
15.7, 34
15.71, 28
15.72, 43
15.73, 35
15.74, 38
15.75, 35
15.76, 24
15.77, 41
15.78, 52
15.79, 37
15.8, 35
15.81, 20
15.82, 32
15.83, 37
15.84, 38
15.85, 34
15.86, 19
15.87, 29
15.88, 34
15.89, 20
15.9, 38
15.91, 39
15.92, 33
15.93, 35
15.94, 36
15.95, 51
15.96, 47
15.97, 44
15.98, 31
15.99, 39
16, 29
16.01, 39
16.02, 31
16.03, 44
16.04, 45
16.05, 33
16.06, 33
16.07, 31
16.08, 36
16.09, 30
16.1, 33
16.11, 38
16.12, 28
16.13, 37
16.14, 39
16.15, 33
16.16, 26
16.17, 39
16.18, 45
16.19, 38
16.2, 38
16.21, 33
16.22, 32
16.23, 39
16.24, 30
16.25, 32
16.26, 37
16.27, 35
16.28, 39
16.29, 43
16.3, 41
16.31, 44
16.32, 45
16.33, 37
16.34, 26
16.35, 43
16.36, 32
16.37, 30
16.38, 30
16.39, 32
16.4, 29
16.41, 49
16.42, 40
16.43, 27
16.44, 35
16.45, 38
16.46, 33
16.47, 33
16.48, 44
16.49, 29
16.5, 41
16.51, 40
16.52, 27
16.53, 35
16.54, 34
16.55, 32
16.56, 36
16.57, 43
16.58, 40
16.59, 38
16.6, 30
16.61, 43
16.62, 37
16.63, 30
16.64, 36
16.65, 34
16.66, 34
16.67, 35
16.68, 35
16.69, 33
16.7, 22
16.71, 36
16.72, 21
16.73, 36
16.74, 33
16.75, 41
16.76, 27
16.77, 34
16.78, 31
16.79, 29
16.8, 32
16.81, 48
16.82, 49
16.83, 38
16.84, 39
16.85, 30
16.86, 43
16.87, 37
16.88, 51
16.89, 34
16.9, 48
16.91, 23
16.92, 33
16.93, 46
16.94, 45
16.95, 47
16.96, 28
16.97, 42
16.98, 47
16.99, 34
17, 42
17.01, 27
17.02, 41
17.03, 38
17.04, 34
17.05, 39
17.06, 41
17.07, 39
17.08, 40
17.09, 38
17.1, 47
17.11, 28
17.12, 34
17.13, 42
17.14, 37
17.15, 35
17.16, 39
17.17, 46
17.18, 43
17.19, 43
17.2, 61
17.21, 51
17.22, 27
17.23, 33
17.24, 29
17.25, 30
17.26, 36
17.27, 26
17.28, 33
17.29, 36
17.3, 31
17.31, 28
17.32, 34
17.33, 36
17.34, 28
17.35, 27
17.36, 41
17.37, 45
17.38, 49
17.39, 57
17.4, 51
17.41, 55
17.42, 47
17.43, 42
17.44, 60
17.46, 88
17.47, 103
17.48, 79
17.49, 77
17.5, 73
17.51, 83
17.52, 66
17.53, 67
17.54, 38
17.55, 51
17.56, 21
17.57, 39
17.58, 42
17.59, 38
17.6, 43
17.61, 53
17.62, 39
17.63, 46
17.64, 46
17.65, 38
17.66, 39
17.67, 29
17.68, 35
17.69, 36
17.7, 42
17.71, 39
17.72, 40
17.73, 39
17.74, 45
17.75, 44
17.76, 41
17.77, 27
17.78, 29
17.79, 35
17.8, 36
17.81, 38
17.82, 33
17.83, 29
17.84, 33
17.85, 36
17.86, 37
17.87, 37
17.88, 54
17.89, 36
17.9, 35
17.91, 46
17.92, 38
17.93, 36
17.94, 26
17.95, 40
17.96, 43
17.97, 39
17.98, 39
17.99, 37
18, 33
18.01, 35
18.02, 30
18.03, 32
18.04, 28
18.05, 36
18.06, 39
18.07, 25
18.08, 38
18.09, 37
18.1, 38
18.11, 40
18.12, 43
18.13, 50
18.14, 43
18.15, 47
18.16, 39
18.17, 46
18.18, 57
18.19, 42
18.2, 54
18.21, 49
18.22, 55
18.23, 49
18.24, 59
18.25, 40
18.26, 53
18.27, 60
18.28, 39
18.29, 46
18.3, 34
18.31, 37
18.32, 29
18.33, 41
18.34, 41
18.35, 29
18.36, 45
18.37, 39
18.38, 41
18.39, 35
18.4, 41
18.41, 37
18.42, 41
18.43, 30
18.44, 42
18.45, 40
18.46, 38
18.47, 41
18.48, 38
18.49, 32
18.5, 41
18.51, 36
18.52, 35
18.53, 49
18.54, 48
18.55, 43
18.56, 40
18.57, 48
18.58, 29
18.59, 41
18.6, 42
18.61, 41
18.62, 42
18.63, 51
18.64, 51
18.65, 51
18.66, 60
18.67, 66
18.68, 77
18.69, 65
18.7, 70
18.71, 65
18.72, 82
18.73, 71
18.74, 83
18.75, 78
18.76, 102
18.77, 106
18.78, 107
18.79, 130
18.8, 140
18.81, 131
18.82, 162
18.83, 97
18.84, 109
18.85, 110
18.86, 84
18.87, 90
18.88, 66
18.89, 63
18.9, 56
18.91, 51
18.92, 66
18.93, 72
18.94, 64
18.95, 62
18.96, 82
18.97, 69
18.98, 88
18.99, 103
19, 119
19.01, 153
19.02, 188
19.03, 186
19.04, 150
19.05, 131
19.06, 109
19.07, 127
19.08, 113
19.09, 100
19.1, 75
19.11, 81
19.12, 57
19.13, 60
19.14, 55
19.15, 37
19.16, 46
19.17, 62
19.18, 47
19.19, 53
19.2, 43
19.21, 43
19.22, 42
19.23, 40
19.24, 38
19.25, 52
19.26, 60
19.27, 29
19.28, 49
19.29, 47
19.3, 34
19.31, 38
19.32, 44
19.33, 55
19.34, 35
19.35, 39
19.36, 44
19.37, 49
19.38, 47
19.39, 61
19.4, 64
19.41, 66
19.42, 73
19.43, 62
19.44, 79
19.45, 49
19.46, 69
19.47, 64
19.48, 77
19.49, 67
19.5, 60
19.51, 67
19.52, 70
19.53, 77
19.54, 63
19.55, 63
19.56, 56
19.57, 52
19.58, 67
19.59, 49
19.6, 65
19.61, 58
19.62, 61
19.63, 70
19.64, 57
19.65, 68
19.66, 67
19.67, 71
19.68, 104
19.69, 93
19.7, 92
19.71, 84
19.72, 76
19.73, 80
19.74, 59
19.75, 81
19.76, 59
19.77, 47
19.78, 52
19.79, 65
19.8, 53
19.81, 49
19.82, 46
19.83, 45
19.84, 48
19.85, 55
19.86, 43
19.87, 51
19.88, 47
19.89, 47
19.9, 58
19.91, 57
19.92, 51
19.93, 34
19.94, 46
19.95, 41
19.96, 46
19.97, 50
19.98, 38
19.99, 53
20, 40
20.01, 46
20.02, 43
20.03, 41
20.04, 37
20.05, 46
20.06, 49
20.07, 45
20.08, 30
20.09, 42
20.1, 41
20.11, 48
20.12, 34
20.13, 38
20.14, 41
20.15, 52
20.16, 46
20.17, 38
20.18, 33
20.19, 48
20.2, 54
20.21, 39
20.22, 45
20.23, 34
20.24, 44
20.25, 43
20.26, 27
20.27, 38
20.28, 33
20.29, 32
20.3, 33
20.31, 31
20.32, 43
20.33, 35
20.34, 48
20.35, 44
20.36, 41
20.37, 43
20.38, 39
20.39, 41
20.4, 30
20.41, 40
20.42, 32
20.43, 38
20.44, 45
20.45, 47
20.46, 33
20.47, 40
20.48, 43
20.49, 39
20.5, 37
20.51, 45
20.52, 44
20.53, 41
20.54, 39
20.55, 43
20.56, 34
20.57, 31
20.58, 47
20.59, 46
20.6, 44
20.61, 40
20.62, 53
20.63, 41
20.64, 33
20.65, 35
20.66, 39
20.67, 43
20.68, 42
20.69, 39
20.7, 51
20.71, 37
20.72, 53
20.73, 47
20.74, 32
20.75, 46
20.76, 39
20.77, 44
20.78, 41
20.79, 37
20.8, 38
20.81, 38
20.82, 38
20.83, 33
20.84, 42
20.85, 37
20.86, 37
20.87, 26
20.88, 38
20.89, 53
20.9, 42
20.91, 50
20.92, 31
20.93, 50
20.94, 39
20.95, 26
20.96, 40
20.97, 44
20.98, 47
20.99, 38
21, 36
21.01, 42
21.02, 40
21.03, 40
21.04, 42
21.05, 38
21.06, 45
21.07, 49
21.08, 66
21.09, 66
21.1, 77
21.11, 79
21.12, 114
21.13, 123
21.14, 140
21.15, 155
21.16, 128
21.17, 116
21.18, 81
21.19, 95
21.2, 71
21.21, 87
21.22, 75
21.23, 57
21.24, 65
21.25, 47
21.26, 41
21.27, 34
21.28, 43
21.29, 50
21.3, 35
21.31, 41
21.32, 50
21.33, 43
21.34, 54
21.35, 52
21.36, 40
21.37, 39
21.38, 37
21.39, 51
21.4, 38
21.41, 51
21.42, 44
21.43, 42
21.44, 43
21.45, 46
21.46, 43
21.47, 59
21.48, 46
21.49, 40
21.5, 42
21.51, 42
21.52, 34
21.53, 46
21.54, 34
21.55, 49
21.56, 42
21.57, 44
21.58, 39
21.59, 42
21.6, 45
21.61, 41
21.62, 36
21.63, 31
21.64, 40
21.65, 33
21.66, 47
21.67, 48
21.68, 33
21.69, 44
21.7, 34
21.71, 39
21.72, 39
21.73, 45
21.74, 36
21.75, 39
21.76, 44
21.77, 44
21.78, 44
21.79, 41
21.8, 46
21.81, 53
21.82, 43
21.83, 42
21.84, 39
21.85, 39
21.86, 30
21.87, 44
21.88, 32
21.89, 35
21.9, 46
21.91, 48
21.92, 30
21.93, 40
21.94, 31
21.95, 34
21.96, 28
21.97, 38
21.98, 47
21.99, 46
22, 50
22.01, 44
22.02, 43
22.03, 45
22.04, 35
22.05, 50
22.06, 35
22.07, 50
22.08, 28
22.09, 36
22.1, 39
22.11, 48
22.12, 48
22.13, 51
22.14, 51
22.15, 33
22.16, 39
22.17, 40
22.18, 22
22.19, 43
22.2, 37
22.21, 45
22.22, 34
22.23, 40
22.24, 38
22.25, 40
22.26, 40
22.27, 49
22.28, 36
22.29, 35
22.3, 49
22.31, 49
22.32, 45
22.33, 41
22.34, 35
22.35, 36
22.36, 38
22.37, 40
22.38, 41
22.39, 38
22.4, 46
22.41, 40
22.42, 38
22.43, 30
22.44, 34
22.45, 36
22.46, 51
22.47, 42
22.48, 43
22.49, 29
22.5, 49
22.51, 38
22.52, 31
22.53, 31
22.54, 51
22.55, 34
22.56, 30
22.57, 46
22.58, 41
22.59, 37
22.6, 43
22.61, 32
22.62, 43
22.63, 51
22.64, 30
22.65, 32
22.66, 40
22.67, 33
22.68, 26
22.69, 29
22.7, 48
22.71, 30
22.72, 39
22.73, 32
22.74, 36
22.75, 38
22.76, 35
22.77, 39
22.78, 30
22.79, 28
22.8, 48
22.81, 31
22.82, 45
22.83, 35
22.84, 38
22.85, 32
22.86, 42
22.87, 37
22.88, 48
22.89, 32
22.9, 40
22.91, 41
22.92, 41
22.93, 50
22.94, 51
22.95, 66
22.96, 68
22.97, 72
22.98, 52
22.99, 50
23, 54
23.01, 47
23.02, 56
23.03, 43
23.04, 30
23.05, 47
23.06, 46
23.07, 43
23.08, 37
23.09, 41
23.1, 35
23.11, 51
23.12, 43
23.13, 36
23.14, 41
23.15, 43
23.16, 36
23.17, 39
23.18, 39
23.19, 39
23.2, 29
23.21, 32
23.22, 40
23.23, 50
23.24, 37
23.25, 44
23.26, 28
23.27, 32
23.28, 34
23.29, 31
23.3, 40
23.31, 37
23.32, 42
23.33, 43
23.34, 30
23.35, 39
23.36, 35
23.37, 31
23.38, 40
23.39, 26
23.4, 39
23.41, 37
23.42, 31
23.43, 36
23.44, 52
23.45, 33
23.46, 29
23.47, 41
23.48, 57
23.49, 43
23.5, 36
23.51, 38
23.52, 31
23.53, 44
23.54, 39
23.55, 46
23.56, 33
23.57, 39
23.58, 32
23.59, 42
23.6, 37
23.61, 47
23.62, 31
23.63, 31
23.64, 42
23.65, 38
23.66, 24
23.67, 42
23.68, 37
23.69, 37
23.7, 47
23.71, 28
23.72, 38
23.73, 37
23.74, 25
23.75, 46
23.76, 35
23.77, 36
23.78, 38
23.79, 45
23.8, 35
23.81, 38
23.82, 36
23.83, 41
23.84, 37
23.85, 29
23.86, 38
23.87, 22
23.88, 40
23.89, 30
23.9, 34
23.91, 37
23.92, 35
23.93, 36
23.94, 36
23.95, 35
23.96, 37
23.97, 45
23.98, 51
23.99, 44
24, 39
24.01, 30
24.02, 40
24.03, 51
24.04, 45
24.05, 33
24.06, 37
24.07, 38
24.08, 45
24.09, 30
24.1, 42
24.11, 38
24.12, 31
24.13, 41
24.14, 36
24.15, 35
24.16, 39
24.17, 38
24.18, 44
24.19, 41
24.2, 32
24.21, 37
24.22, 54
24.23, 38
24.24, 38
24.25, 34
24.26, 38
24.27, 40
24.28, 29
24.29, 37
24.3, 33
24.31, 43
24.32, 45
24.33, 40
24.34, 35
24.35, 38
24.36, 28
24.37, 36
24.38, 40
24.39, 40
24.4, 39
24.41, 43
24.42, 30
24.43, 48
24.44, 26
24.45, 29
24.46, 37
24.47, 35
24.48, 42
24.49, 37
24.5, 37
24.51, 54
24.52, 41
24.53, 28
24.54, 36
24.55, 43
24.56, 32
24.57, 33
24.58, 36
24.59, 44
24.6, 46
24.61, 27
24.62, 36
24.63, 52
24.64, 40
24.65, 39
24.66, 42
24.67, 33
24.68, 41
24.69, 34
24.7, 27
24.71, 37
24.72, 35
24.73, 36
24.74, 29
24.75, 36
24.76, 45
24.77, 41
24.78, 52
24.79, 44
24.8, 39
24.81, 41
24.82, 27
24.83, 31
24.84, 52
24.85, 40
24.86, 39
24.87, 33
24.88, 40
24.89, 38
24.9, 41
24.91, 45
24.92, 41
24.93, 41
24.94, 33
24.95, 48
24.96, 40
24.97, 32
24.98, 49
24.99, 37
25, 48
25.01, 58
25.02, 61
25.03, 53
25.04, 49
25.05, 64
25.06, 56
25.07, 62
25.08, 72
25.09, 84
25.1, 103
25.11, 121
25.12, 148
25.13, 172
25.14, 174
25.15, 146
25.16, 116
25.17, 115
25.18, 123
25.19, 119
25.2, 95
25.21, 95
25.22, 81
25.23, 83
25.24, 53
25.25, 61
25.26, 45
25.27, 37
25.28, 44
25.29, 40
25.3, 43
25.31, 48
25.32, 52
25.33, 44
25.34, 52
25.35, 38
25.36, 45
25.37, 30
25.38, 39
25.39, 41
25.4, 49
25.41, 43
25.42, 45
25.43, 43
25.44, 48
25.45, 33
25.46, 50
25.47, 50
25.48, 27
25.49, 32
25.5, 46
25.51, 44
25.52, 39
25.53, 49
25.54, 48
25.55, 44
25.56, 44
25.57, 45
25.58, 51
25.59, 39
25.6, 48
25.61, 38
25.62, 40
25.63, 35
25.64, 29
25.65, 44
25.66, 37
25.67, 39
25.68, 48
25.69, 44
25.7, 46
25.71, 32
25.72, 56
25.73, 56
25.74, 41
25.75, 48
25.76, 38
25.77, 41
25.78, 44
25.79, 51
25.8, 55
25.81, 41
25.82, 62
25.83, 49
25.84, 54
25.85, 39
25.86, 47
25.87, 69
25.88, 55
25.89, 54
25.9, 33
25.91, 40
25.92, 35
25.93, 47
25.94, 37
25.95, 35
25.96, 51
25.97, 49
25.98, 42
25.99, 41
26, 37
26.01, 46
26.02, 41
26.03, 38
26.04, 45
26.05, 37
26.06, 38
26.07, 44
26.08, 43
26.09, 48
26.1, 42
26.11, 27
26.12, 42
26.13, 38
26.14, 36
26.15, 52
26.16, 23
26.17, 42
26.18, 51
26.19, 32
26.2, 43
26.21, 37
26.22, 36
26.23, 47
26.24, 38
26.25, 39
26.26, 38
26.27, 45
26.28, 40
26.29, 48
26.3, 44
26.31, 48
26.32, 52
26.33, 50
26.34, 64
26.35, 82
26.36, 104
26.37, 111
26.38, 93
26.39, 89
26.4, 78
26.41, 66
26.42, 74
26.43, 75
26.44, 85
26.45, 80
26.46, 57
26.47, 55
26.48, 57
26.49, 40
26.5, 46
26.51, 46
26.52, 47
26.53, 37
26.54, 41
26.55, 35
26.56, 56
26.57, 34
26.58, 34
26.59, 51
26.6, 41
26.61, 36
26.62, 40
26.63, 33
26.64, 35
26.65, 40
26.66, 40
26.67, 43
26.68, 36
26.69, 34
26.7, 46
26.71, 31
26.72, 36
26.73, 39
26.74, 35
26.75, 40
26.76, 41
26.77, 40
26.78, 45
26.79, 40
26.8, 46
26.81, 46
26.82, 42
26.83, 40
26.84, 45
26.85, 43
26.86, 36
26.87, 40
26.88, 33
26.89, 42
26.9, 47
26.91, 34
26.92, 62
26.93, 41
26.94, 37
26.95, 42
26.96, 45
26.97, 50
26.98, 28
26.99, 37
27, 33
27.01, 51
27.02, 45
27.03, 49
27.04, 39
27.05, 31
27.06, 37
27.07, 39
27.08, 47
27.09, 50
27.1, 54
27.11, 42
27.12, 44
27.13, 36
27.14, 54
27.15, 42
27.16, 61
27.17, 52
27.18, 70
27.19, 92
27.2, 125
27.21, 123
27.22, 152
27.23, 144
27.24, 203
27.25, 211
27.26, 211
27.27, 169
27.28, 137
27.29, 127
27.3, 134
27.31, 137
27.32, 132
27.33, 106
27.34, 92
27.35, 77
27.36, 53
27.37, 54
27.38, 46
27.39, 47
27.4, 54
27.41, 39
27.42, 39
27.43, 46
27.44, 48
27.45, 42
27.46, 43
27.47, 42
27.48, 50
27.49, 45
27.5, 56
27.51, 36
27.52, 52
27.53, 28
27.54, 34
27.55, 41
27.56, 40
27.57, 33
27.58, 47
27.59, 37
27.6, 40
27.61, 41
27.62, 43
27.63, 46
27.64, 47
27.65, 48
27.66, 50
27.67, 44
27.68, 41
27.69, 46
27.7, 46
27.71, 40
27.72, 47
27.73, 45
27.74, 56
27.75, 51
27.76, 41
27.77, 48
27.78, 36
27.79, 34
27.8, 42
27.81, 42
27.82, 41
27.83, 44
27.84, 31
27.85, 49
27.86, 42
27.87, 55
27.88, 54
27.89, 46
27.9, 40
27.91, 40
27.92, 50
27.93, 50
27.94, 41
27.95, 48
27.96, 42
27.97, 44
27.98, 34
27.99, 55
28, 48
28.01, 42
28.02, 51
28.03, 42
28.04, 39
28.05, 49
28.06, 59
28.07, 42
28.08, 40
28.09, 52
28.1, 39
28.11, 45
28.12, 40
28.13, 46
28.14, 40
28.15, 42
28.16, 45
28.17, 51
28.18, 38
28.19, 57
28.2, 57
28.21, 41
28.22, 50
28.23, 46
28.24, 35
28.25, 44
28.26, 60
28.27, 48
28.28, 50
28.29, 36
28.3, 54
28.31, 58
28.32, 51
28.33, 50
28.34, 54
28.35, 48
28.36, 49
28.37, 44
28.38, 52
28.39, 49
28.4, 46
28.41, 71
28.42, 66
28.43, 58
28.44, 87
28.45, 75
28.46, 77
28.47, 92
28.48, 87
28.49, 116
28.5, 105
28.51, 112
28.52, 132
28.53, 181
28.54, 205
28.55, 271
28.56, 336
28.57, 462
28.58, 632
28.59, 849
28.6, 948
28.61, 971
28.62, 935
28.63, 773
28.64, 818
28.65, 901
28.66, 1119
28.67, 1324
28.68, 1215
28.69, 1086
28.7, 780
28.71, 600
28.72, 530
28.73, 537
28.74, 579
28.75, 499
28.76, 446
28.77, 342
28.78, 234
28.79, 194
28.8, 152
28.81, 146
28.82, 123
28.83, 115
28.84, 109
28.85, 96
28.86, 96
28.87, 86
28.88, 81
28.89, 83
28.9, 65
28.91, 71
28.92, 66
28.93, 82
28.94, 62
28.95, 52
28.96, 70
28.97, 54
28.98, 53
28.99, 39
29, 43
29.01, 62
29.02, 66
29.03, 55
29.04, 44
29.05, 51
29.06, 47
29.07, 42
29.08, 47
29.09, 47
29.1, 50
29.11, 45
29.12, 52
29.13, 38
29.14, 43
29.15, 40
29.16, 49
29.17, 48
29.18, 43
29.19, 47
29.2, 52
29.21, 50
29.22, 41
29.23, 45
29.24, 40
29.25, 45
29.26, 37
29.27, 42
29.28, 42
29.29, 33
29.3, 36
29.31, 49
29.32, 36
29.33, 40
29.34, 37
29.35, 42
29.36, 39
29.37, 51
29.38, 40
29.39, 27
29.4, 47
29.41, 52
29.42, 48
29.43, 36
29.44, 28
29.45, 45
29.46, 32
29.47, 49
29.48, 37
29.49, 46
29.5, 39
29.51, 37
29.52, 38
29.53, 39
29.54, 52
29.55, 44
29.56, 49
29.57, 41
29.58, 45
29.59, 38
29.6, 41
29.61, 38
29.62, 41
29.63, 42
29.64, 46
29.65, 33
29.66, 42
29.67, 34
29.68, 39
29.69, 48
29.7, 44
29.71, 40
29.72, 42
29.73, 45
29.74, 40
29.75, 35
29.76, 49
29.77, 33
29.78, 34
29.79, 46
29.8, 42
29.81, 36
29.82, 39
29.83, 28
29.84, 29
29.85, 40
29.86, 39
29.87, 52
29.88, 41
29.89, 40
29.9, 43
29.91, 30
29.92, 31
29.93, 46
29.94, 44
29.95, 39
29.96, 49
29.97, 41
29.98, 55
29.99, 37
30, 36
30.01, 41
30.02, 36
30.03, 45
30.04, 36
30.05, 35
30.06, 45
30.07, 41
30.08, 34
30.09, 21
30.1, 42
30.11, 38
30.12, 51
30.13, 27
30.14, 38
30.15, 36
30.16, 32
30.17, 41
30.18, 43
30.19, 30
30.2, 49
30.21, 35
30.22, 35
30.23, 34
30.24, 42
30.25, 40
30.26, 43
30.27, 48
30.28, 43
30.29, 50
30.3, 46
30.31, 46
30.32, 45
30.33, 44
30.34, 54
30.35, 58
30.36, 60
30.37, 85
30.38, 73
30.39, 117
30.4, 106
30.41, 114
30.42, 127
30.43, 106
30.44, 100
30.45, 74
30.46, 92
30.47, 82
30.48, 85
30.49, 71
30.5, 68
30.51, 64
30.52, 60
30.53, 55
30.54, 52
30.55, 39
30.56, 53
30.57, 35
30.58, 34
30.59, 29
30.6, 42
30.61, 24
30.62, 47
30.63, 49
30.64, 32
30.65, 53
30.66, 35
30.67, 34
30.68, 38
30.69, 43
30.7, 43
30.71, 40
30.72, 34
30.73, 51
30.74, 39
30.75, 44
30.76, 60
30.77, 39
30.78, 54
30.79, 28
30.8, 38
30.81, 40
30.82, 36
30.83, 35
30.84, 36
30.85, 41
30.86, 36
30.87, 45
30.88, 44
30.89, 38
30.9, 40
30.91, 34
30.92, 28
30.93, 31
30.94, 52
30.95, 39
30.96, 41
30.97, 37
30.98, 32
30.99, 27
31, 31
31.01, 37
31.02, 31
31.03, 32
31.04, 33
31.05, 39
31.06, 35
31.07, 35
31.08, 33
31.09, 38
31.1, 36
31.11, 37
31.12, 38
31.13, 40
31.14, 35
31.15, 49
31.16, 39
31.17, 42
31.18, 46
31.19, 31
31.2, 45
31.21, 41
31.22, 47
31.23, 29
31.24, 42
31.25, 43
31.26, 43
31.27, 40
31.28, 33
31.29, 38
31.3, 39
31.31, 35
31.32, 35
31.33, 40
31.34, 43
31.35, 31
31.36, 36
31.37, 42
31.38, 33
31.39, 36
31.4, 36
31.41, 44
31.42, 44
31.43, 36
31.44, 39
31.45, 44
31.46, 37
31.47, 38
31.48, 41
31.49, 50
31.5, 40
31.51, 52
31.52, 44
31.53, 62
31.54, 63
31.55, 53
31.56, 62
31.57, 71
31.58, 50
31.59, 40
31.6, 61
31.61, 52
31.62, 65
31.63, 40
31.64, 40
31.65, 43
31.66, 41
31.67, 34
31.68, 31
31.69, 40
31.7, 40
31.71, 38
31.72, 58
31.73, 56
31.74, 49
31.75, 46
31.76, 41
31.77, 41
31.78, 42
31.79, 45
31.8, 54
31.81, 44
31.82, 47
31.83, 45
31.84, 38
31.85, 46
31.86, 61
31.87, 55
31.88, 83
31.89, 110
31.9, 167
31.91, 173
31.92, 163
31.93, 132
31.94, 109
31.95, 66
31.96, 66
31.97, 78
31.98, 105
31.99, 93
32, 91
32.01, 96
32.02, 63
32.03, 29
32.04, 29
32.05, 51
32.06, 39
32.07, 45
32.08, 38
32.09, 39
32.1, 40
32.11, 44
32.12, 28
32.13, 43
32.14, 37
32.15, 43
32.16, 38
32.17, 44
32.18, 33
32.19, 39
32.2, 42
32.21, 44
32.22, 30
32.23, 44
32.24, 37
32.25, 37
32.26, 36
32.27, 26
32.28, 31
32.29, 36
32.3, 20
32.31, 30
32.32, 41
32.33, 30
32.34, 39
32.35, 33
32.36, 41
32.37, 33
32.38, 39
32.39, 38
32.4, 37
32.41, 38
32.42, 37
32.43, 32
32.44, 44
32.45, 38
32.46, 33
32.47, 38
32.48, 42
32.49, 38
32.5, 43
32.51, 30
32.52, 28
32.53, 39
32.54, 43
32.55, 44
32.56, 44
32.57, 33
32.58, 27
32.59, 48
32.6, 41
32.61, 36
32.62, 32
32.63, 31
32.64, 38
32.65, 29
32.66, 32
32.67, 38
32.68, 33
32.69, 51
32.7, 45
32.71, 54
32.72, 55
32.73, 61
32.74, 44
32.75, 49
32.76, 60
32.77, 71
32.78, 75
32.79, 84
32.8, 89
32.81, 82
32.82, 69
32.83, 79
32.84, 63
32.85, 54
32.86, 67
32.87, 78
32.88, 75
32.89, 72
32.9, 79
32.91, 66
32.92, 47
32.93, 47
32.94, 45
32.95, 43
32.96, 30
32.97, 35
32.98, 41
32.99, 51
33, 61
33.01, 77
33.02, 66
33.03, 65
33.04, 62
33.05, 88
33.06, 127
33.07, 125
33.08, 152
33.09, 189
33.1, 231
33.11, 184
33.12, 149
33.13, 126
33.14, 101
33.15, 115
33.16, 81
33.17, 118
33.18, 116
33.19, 100
33.2, 103
33.21, 71
33.22, 67
33.23, 51
33.24, 49
33.25, 52
33.26, 56
33.27, 33
33.28, 42
33.29, 34
33.3, 41
33.31, 42
33.32, 45
33.33, 35
33.34, 44
33.35, 38
33.36, 42
33.37, 35
33.38, 40
33.39, 34
33.4, 32
33.41, 34
33.42, 48
33.43, 41
33.44, 30
33.45, 47
33.46, 31
33.47, 37
33.48, 42
33.49, 41
33.5, 36
33.51, 33
33.52, 35
33.53, 35
33.54, 36
33.55, 34
33.56, 40
33.57, 37
33.58, 40
33.59, 31
33.6, 48
33.61, 38
33.62, 35
33.63, 30
33.64, 47
33.65, 38
33.66, 37
33.67, 38
33.68, 46
33.69, 33
33.7, 39
33.71, 41
33.72, 24
33.73, 44
33.74, 35
33.75, 35
33.76, 40
33.77, 40
33.78, 45
33.79, 39
33.8, 44
33.81, 37
33.82, 34
33.83, 31
33.84, 51
33.85, 38
33.86, 29
33.87, 29
33.88, 38
33.89, 38
33.9, 39
33.91, 35
33.92, 44
33.93, 38
33.94, 30
33.95, 44
33.96, 34
33.97, 35
33.98, 46
33.99, 51
34, 47
34.01, 41
34.02, 41
34.03, 44
34.04, 45
34.05, 36
34.06, 43
34.07, 40
34.08, 50
34.09, 46
34.1, 48
34.11, 45
34.12, 60
34.13, 34
34.14, 45
34.15, 46
34.16, 40
34.17, 35
34.18, 50
34.19, 40
34.2, 38
34.21, 43
34.22, 48
34.23, 34
34.24, 36
34.25, 38
34.26, 42
34.27, 39
34.28, 48
34.29, 47
34.3, 47
34.31, 49
34.32, 40
34.33, 46
34.34, 41
34.35, 51
34.36, 35
34.37, 28
34.38, 46
34.39, 54
34.4, 50
34.41, 50
34.42, 33
34.43, 53
34.44, 41
34.45, 48
34.46, 41
34.47, 40
34.48, 45
34.49, 43
34.5, 53
34.51, 42
34.52, 71
34.53, 60
34.54, 64
34.55, 72
34.56, 95
34.57, 92
34.58, 152
34.59, 142
34.6, 122
34.61, 93
34.62, 87
34.63, 74
34.64, 70
34.65, 73
34.66, 98
34.67, 100
34.68, 98
34.69, 91
34.7, 63
34.71, 68
34.72, 76
34.73, 57
34.74, 59
34.75, 49
34.76, 36
34.77, 39
34.78, 42
34.79, 46
34.8, 40
34.81, 48
34.82, 43
34.83, 37
34.84, 47
34.85, 44
34.86, 45
34.87, 30
34.88, 51
34.89, 34
34.9, 34
34.91, 35
34.92, 34
34.93, 44
34.94, 40
34.95, 52
34.96, 40
34.97, 40
34.98, 46
34.99, 40
35, 45
35.01, 36
35.02, 51
35.03, 37
35.04, 41
35.05, 40
35.06, 39
35.07, 40
35.08, 45
35.09, 38
35.1, 33
35.11, 44
35.12, 43
35.13, 44
35.14, 30
35.15, 42
35.16, 44
35.17, 37
35.18, 51
35.19, 48
35.2, 46
35.21, 36
35.22, 43
35.23, 41
35.24, 50
35.25, 62
35.26, 38
35.27, 46
35.28, 46
35.29, 47
35.3, 52
35.31, 44
35.32, 42
35.33, 52
35.34, 41
35.35, 58
35.36, 58
35.37, 45
35.38, 44
35.39, 72
35.4, 64
35.41, 61
35.42, 68
35.43, 76
35.44, 91
35.45, 63
35.46, 80
35.47, 53
35.48, 59
35.49, 72
35.5, 54
35.51, 65
35.52, 68
35.53, 67
35.54, 56
35.55, 54
35.56, 61
35.57, 57
35.58, 32
35.59, 55
35.6, 48
35.61, 39
35.62, 42
35.63, 50
35.64, 39
35.65, 33
35.66, 45
35.67, 42
35.68, 38
35.69, 44
35.7, 38
35.71, 37
35.72, 43
35.73, 40
35.74, 40
35.75, 35
35.76, 47
35.77, 50
35.78, 44
35.79, 38
35.8, 37
35.81, 33
35.82, 55
35.83, 42
35.84, 44
35.85, 30
35.86, 49
35.87, 36
35.88, 36
35.89, 52
35.9, 43
35.91, 43
35.92, 52
35.93, 52
35.94, 64
35.95, 47
35.96, 46
35.97, 69
35.98, 79
35.99, 66
36, 58
36.01, 57
36.02, 62
36.03, 53
36.04, 65
36.05, 41
36.06, 59
36.07, 63
36.08, 70
36.09, 52
36.1, 53
36.11, 63
36.12, 60
36.13, 58
36.14, 75
36.15, 73
36.16, 68
36.17, 61
36.18, 71
36.19, 63
36.2, 60
36.21, 72
36.22, 61
36.23, 66
36.24, 60
36.25, 49
36.26, 66
36.27, 56
36.28, 55
36.29, 72
36.3, 49
36.31, 58
36.32, 47
36.33, 57
36.34, 50
36.35, 51
36.36, 47
36.37, 55
36.38, 47
36.39, 58
36.4, 42
36.41, 64
36.42, 43
36.43, 44
36.44, 54
36.45, 55
36.46, 55
36.47, 46
36.48, 57
36.49, 55
36.5, 45
36.51, 52
36.52, 53
36.53, 41
36.54, 50
36.55, 43
36.56, 60
36.57, 44
36.58, 55
36.59, 43
36.6, 42
36.61, 46
36.62, 56
36.63, 40
36.64, 56
36.65, 56
36.66, 39
36.67, 45
36.68, 49
36.69, 59
36.7, 51
36.71, 49
36.72, 50
36.73, 46
36.74, 54
36.75, 57
36.76, 47
36.77, 38
36.78, 38
36.79, 41
36.8, 36
36.81, 50
36.82, 47
36.83, 39
36.84, 51
36.85, 56
36.86, 45
36.87, 54
36.88, 51
36.89, 49
36.9, 44
36.91, 50
36.92, 41
36.93, 43
36.94, 41
36.95, 39
36.96, 44
36.97, 54
36.98, 58
36.99, 34
37, 32
37.01, 43
37.02, 33
37.03, 45
37.04, 47
37.05, 32
37.06, 50
37.07, 44
37.08, 40
37.09, 46
37.1, 33
37.11, 35
37.12, 35
37.13, 47
37.14, 38
37.15, 42
37.16, 40
37.17, 50
37.18, 39
37.19, 38
37.2, 51
37.21, 23
37.22, 31
37.23, 32
37.24, 40
37.25, 44
37.26, 50
37.27, 48
37.28, 59
37.29, 60
37.3, 61
37.31, 59
37.32, 57
37.33, 44
37.34, 49
37.35, 59
37.36, 54
37.37, 50
37.38, 41
37.39, 54
37.4, 51
37.41, 47
37.42, 52
37.43, 31
37.44, 37
37.45, 47
37.46, 53
37.47, 33
37.48, 38
37.49, 41
37.5, 43
37.51, 41
37.52, 44
37.53, 45
37.54, 36
37.55, 26
37.56, 53
37.57, 38
37.58, 39
37.59, 46
37.6, 38
37.61, 34
37.62, 37
37.63, 40
37.64, 35
37.65, 35
37.66, 31
37.67, 41
37.68, 45
37.69, 42
37.7, 48
37.71, 55
37.72, 45
37.73, 62
37.74, 79
37.75, 61
37.76, 69
37.77, 62
37.78, 56
37.79, 46
37.8, 47
37.81, 46
37.82, 56
37.83, 55
37.84, 64
37.85, 58
37.86, 52
37.87, 47
37.88, 43
37.89, 47
37.9, 58
37.91, 37
37.92, 39
37.93, 45
37.94, 43
37.95, 32
37.96, 36
37.97, 36
37.98, 26
37.99, 35
38, 39
38.01, 34
38.02, 43
38.03, 41
38.04, 40
38.05, 38
38.06, 36
38.07, 33
38.08, 27
38.09, 24
38.1, 45
38.11, 42
38.12, 29
38.13, 41
38.14, 33
38.15, 37
38.16, 39
38.17, 30
38.18, 42
38.19, 36
38.2, 29
38.21, 33
38.22, 34
38.23, 33
38.24, 41
38.25, 43
38.26, 46
38.27, 31
38.28, 46
38.29, 34
38.3, 46
38.31, 48
38.32, 38
38.33, 30
38.34, 38
38.35, 38
38.36, 34
38.37, 48
38.38, 41
38.39, 41
38.4, 46
38.41, 36
38.42, 35
38.43, 38
38.44, 56
38.45, 41
38.46, 56
38.47, 66
38.48, 75
38.49, 81
38.5, 85
38.51, 88
38.52, 112
38.53, 104
38.54, 72
38.55, 92
38.56, 86
38.57, 67
38.58, 72
38.59, 60
38.6, 72
38.61, 81
38.62, 80
38.63, 78
38.64, 70
38.65, 53
38.66, 50
38.67, 55
38.68, 50
38.69, 47
38.7, 58
38.71, 39
38.72, 34
38.73, 55
38.74, 64
38.75, 31
38.76, 44
38.77, 68
38.78, 70
38.79, 73
38.8, 76
38.81, 81
38.82, 60
38.83, 72
38.84, 68
38.85, 53
38.86, 61
38.87, 54
38.88, 72
38.89, 42
38.9, 50
38.91, 59
38.92, 51
38.93, 50
38.94, 48
38.95, 52
38.96, 51
38.97, 35
38.98, 25
38.99, 38
39, 40
39.01, 43
39.02, 33
39.03, 44
39.04, 53
39.05, 42
39.06, 57
39.07, 28
39.08, 37
39.09, 34
39.1, 37
39.11, 41
39.12, 39
39.13, 41
39.14, 56
39.15, 62
39.16, 56
39.17, 58
39.18, 57
39.19, 51
39.2, 54
39.21, 44
39.22, 42
39.23, 43
39.24, 43
39.25, 38
39.26, 55
39.27, 50
39.28, 48
39.29, 42
39.3, 63
39.31, 48
39.32, 33
39.33, 39
39.34, 40
39.35, 50
39.36, 32
39.37, 40
39.38, 26
39.39, 35
39.4, 47
39.41, 39
39.42, 38
39.43, 36
39.44, 39
39.45, 42
39.46, 48
39.47, 40
39.48, 29
39.49, 29
39.5, 47
39.51, 46
39.52, 33
39.53, 32
39.54, 46
39.55, 51
39.56, 41
39.57, 34
39.58, 56
39.59, 40
39.6, 69
39.61, 58
39.62, 70
39.63, 64
39.64, 42
39.65, 40
39.66, 59
39.67, 53
39.68, 42
39.69, 49
39.7, 33
39.71, 41
39.72, 49
39.73, 49
39.74, 47
39.75, 52
39.76, 41
39.77, 39
39.78, 40
39.79, 41
39.8, 40
39.81, 43
39.82, 50
39.83, 31
39.84, 36
39.85, 35
39.86, 32
39.87, 45
39.88, 34
39.89, 39
39.9, 43
39.91, 38
39.92, 38
39.93, 41
39.94, 36
39.95, 37
39.96, 43
39.97, 50
39.98, 37
39.99, 57
40, 45
40.01, 47
40.02, 44
40.03, 41
40.04, 45
40.05, 38
40.06, 39
40.07, 44
40.08, 34
40.09, 49
40.1, 43
40.11, 16
40.12, 42
40.13, 46
40.14, 43
40.15, 24
40.16, 37
40.17, 36
40.18, 48
40.19, 41
40.2, 31
40.21, 37
40.22, 41
40.23, 44
40.24, 50
40.25, 46
40.26, 37
40.27, 39
40.28, 37
40.29, 44
40.3, 42
40.31, 40
40.32, 47
40.33, 46
40.34, 35
40.35, 35
40.36, 27
40.37, 42
40.38, 39
40.39, 41
40.4, 38
40.41, 39
40.42, 35
40.43, 38
40.44, 56
40.45, 59
40.46, 43
40.47, 43
40.48, 50
40.49, 47
40.5, 45
40.51, 39
40.52, 51
40.53, 43
40.54, 42
40.55, 50
40.56, 36
40.57, 37
40.58, 65
40.59, 52
40.6, 55
40.61, 53
40.62, 42
40.63, 43
40.64, 53
40.65, 50
40.66, 36
40.67, 47
40.68, 51
40.69, 35
40.7, 44
40.71, 50
40.72, 42
40.73, 45
40.74, 43
40.75, 47
40.76, 45
40.77, 43
40.78, 46
40.79, 41
40.8, 40
40.81, 50
40.82, 44
40.83, 48
40.84, 37
40.85, 38
40.86, 40
40.87, 43
40.88, 51
40.89, 39
40.9, 55
40.91, 52
40.92, 39
40.93, 51
40.94, 48
40.95, 30
40.96, 39
40.97, 34
40.98, 46
40.99, 45
41, 33
41.01, 41
41.02, 49
41.03, 40
41.04, 34
41.05, 43
41.06, 37
41.07, 39
41.08, 39
41.09, 39
41.1, 34
41.11, 34
41.12, 39
41.13, 30
41.14, 50
41.15, 42
41.16, 47
41.17, 37
41.18, 40
41.19, 33
41.2, 42
41.21, 46
41.22, 51
41.23, 45
41.24, 41
41.25, 45
41.26, 38
41.27, 36
41.28, 38
41.29, 39
41.3, 37
41.31, 44
41.32, 37
41.33, 42
41.34, 46
41.35, 42
41.36, 50
41.37, 50
41.38, 57
41.39, 42
41.4, 45
41.41, 54
41.42, 44
41.43, 34
41.44, 43
41.45, 41
41.46, 38
41.47, 36
41.48, 41
41.49, 54
41.5, 52
41.51, 30
41.52, 39
41.53, 42
41.54, 32
41.55, 36
41.56, 54
41.57, 45
41.58, 46
41.59, 38
41.6, 39
41.61, 41
41.62, 39
41.63, 48
41.64, 30
41.65, 42
41.66, 50
41.67, 37
41.68, 42
41.69, 50
41.7, 50
41.71, 66
41.72, 71
41.73, 85
41.74, 113
41.75, 106
41.76, 122
41.77, 101
41.78, 80
41.79, 53
41.8, 65
41.81, 63
41.82, 66
41.83, 57
41.84, 58
41.85, 78
41.86, 67
41.87, 77
41.88, 67
41.89, 62
41.9, 53
41.91, 48
41.92, 40
41.93, 42
41.94, 37
41.95, 40
41.96, 45
41.97, 50
41.98, 40
41.99, 38
42, 47
42.01, 27
42.02, 36
42.03, 36
42.04, 38
42.05, 30
42.06, 44
42.07, 28
42.08, 38
42.09, 52
42.1, 40
42.11, 35
42.12, 41
42.13, 44
42.14, 45
42.15, 40
42.16, 53
42.17, 38
42.18, 41
42.19, 51
42.2, 36
42.21, 48
42.22, 39
42.23, 32
42.24, 46
42.25, 31
42.26, 42
42.27, 32
42.28, 28
42.29, 38
42.3, 38
42.31, 30
42.32, 45
42.33, 42
42.34, 40
42.35, 27
42.36, 41
42.37, 35
42.38, 43
42.39, 48
42.4, 48
42.41, 41
42.42, 53
42.43, 30
42.44, 47
42.45, 40
42.46, 40
42.47, 35
42.48, 43
42.49, 46
42.5, 40
42.51, 43
42.52, 39
42.53, 41
42.54, 39
42.55, 59
42.56, 42
42.57, 40
42.58, 47
42.59, 27
42.6, 34
42.61, 29
42.62, 42
42.63, 44
42.64, 32
42.65, 34
42.66, 27
42.67, 33
42.68, 33
42.69, 41
42.7, 50
42.71, 44
42.72, 35
42.73, 34
42.74, 42
42.75, 38
42.76, 35
42.77, 41
42.78, 37
42.79, 47
42.8, 36
42.81, 39
42.82, 29
42.83, 33
42.84, 32
42.85, 40
42.86, 37
42.87, 41
42.88, 36
42.89, 44
42.9, 39
42.91, 41
42.92, 47
42.93, 40
42.94, 47
42.95, 39
42.96, 46
42.97, 40
42.98, 35
42.99, 42
43, 47
43.01, 46
43.02, 42
43.03, 42
43.04, 41
43.05, 44
43.06, 36
43.07, 59
43.08, 38
43.09, 33
43.1, 37
43.11, 41
43.12, 29
43.13, 36
43.14, 48
43.15, 44
43.16, 42
43.17, 49
43.18, 44
43.19, 41
43.2, 41
43.21, 37
43.22, 45
43.23, 32
43.24, 44
43.25, 44
43.26, 48
43.27, 40
43.28, 53
43.29, 40
43.3, 52
43.31, 46
43.32, 33
43.33, 37
43.34, 43
43.35, 51
43.36, 39
43.37, 49
43.38, 35
43.39, 47
43.4, 32
43.41, 47
43.42, 48
43.43, 39
43.44, 35
43.45, 39
43.46, 44
43.47, 37
43.48, 34
43.49, 46
43.5, 44
43.51, 39
43.52, 34
43.53, 41
43.54, 28
43.55, 40
43.56, 35
43.57, 39
43.58, 34
43.59, 47
43.6, 40
43.61, 39
43.62, 45
43.63, 37
43.64, 42
43.65, 43
43.66, 40
43.67, 36
43.68, 34
43.69, 38
43.7, 38
43.71, 52
43.72, 28
43.73, 40
43.74, 37
43.75, 45
43.76, 34
43.77, 40
43.78, 37
43.79, 39
43.8, 46
43.81, 35
43.82, 43
43.83, 29
43.84, 36
43.85, 39
43.86, 42
43.87, 19
43.88, 33
43.89, 26
43.9, 31
43.91, 34
43.92, 31
43.93, 34
43.94, 39
43.95, 47
43.96, 34
43.97, 43
43.98, 35
43.99, 39
44, 33
44.01, 46
44.02, 34
44.03, 28
44.04, 43
44.05, 27
44.06, 31
44.07, 38
44.08, 36
44.09, 36
44.1, 28
44.11, 31
44.12, 33
44.13, 33
44.14, 48
44.15, 34
44.16, 33
44.17, 40
44.18, 33
44.19, 29
44.2, 41
44.21, 41
44.22, 38
44.23, 35
44.24, 35
44.25, 42
44.26, 49
44.27, 51
44.28, 42
44.29, 43
44.3, 39
44.31, 52
44.32, 46
44.33, 57
44.34, 39
44.35, 53
44.36, 40
44.37, 41
44.38, 39
44.39, 41
44.4, 36
44.41, 45
44.42, 35
44.43, 32
44.44, 36
44.45, 35
44.46, 24
44.47, 44
44.48, 37
44.49, 51
44.5, 49
44.51, 30
44.52, 46
44.53, 32
44.54, 39
44.55, 38
44.56, 47
44.57, 38
44.58, 36
44.59, 37
44.6, 27
44.61, 41
44.62, 37
44.63, 34
44.64, 42
44.65, 39
44.66, 40
44.67, 36
44.68, 44
44.69, 51
44.7, 40
44.71, 44
44.72, 52
44.73, 51
44.74, 32
44.75, 47
44.76, 39
44.77, 30
44.78, 28
44.79, 44
44.8, 41
44.81, 35
44.82, 34
44.83, 47
44.84, 52
44.85, 47
44.86, 42
44.87, 36
44.88, 48
44.89, 55
44.9, 52
44.91, 77
44.92, 99
44.93, 131
44.94, 111
44.95, 71
44.96, 67
44.97, 72
44.98, 60
44.99, 73
45, 60
45.01, 58
45.02, 57
45.03, 58
45.04, 64
45.05, 82
45.06, 70
45.07, 65
45.08, 68
45.09, 58
45.1, 58
45.11, 56
45.12, 58
45.13, 42
45.14, 55
45.15, 51
45.16, 55
45.17, 38
45.18, 40
45.19, 48
45.2, 43
45.21, 53
45.22, 50
45.23, 39
45.24, 48
45.25, 48
45.26, 57
45.27, 79
45.28, 59
45.29, 51
45.3, 81
45.31, 61
45.32, 46
45.33, 65
45.34, 44
45.35, 53
45.36, 48
45.37, 54
45.38, 41
45.39, 54
45.4, 47
45.41, 61
45.42, 56
45.43, 57
45.44, 57
45.45, 46
45.46, 28
45.47, 37
45.48, 35
45.49, 48
45.5, 25
45.51, 48
45.52, 38
45.53, 30
45.54, 26
45.55, 35
45.56, 42
45.57, 25
45.58, 37
45.59, 34
45.6, 38
45.61, 36
45.62, 27
45.63, 30
45.64, 35
45.65, 33
45.66, 39
45.67, 45
45.68, 38
45.69, 37
45.7, 36
45.71, 29
45.72, 47
45.73, 32
45.74, 26
45.75, 35
45.76, 36
45.77, 26
45.78, 20
45.79, 20
45.8, 36
45.81, 30
45.82, 32
45.83, 34
45.84, 35
45.85, 41
45.86, 40
45.87, 34
45.88, 39
45.89, 33
45.9, 33
45.91, 30
45.92, 31
45.93, 38
45.94, 40
45.95, 43
45.96, 43
45.97, 37
45.98, 24
45.99, 43
46, 32
46.01, 52
46.02, 39
46.03, 43
46.04, 33
46.05, 33
46.06, 38
46.07, 36
46.08, 30
46.09, 42
46.1, 46
46.11, 42
46.12, 48
46.13, 38
46.14, 39
46.15, 46
46.16, 22
46.17, 38
46.18, 48
46.19, 44
46.2, 36
46.21, 49
46.22, 51
46.23, 48
46.24, 37
46.25, 38
46.26, 40
46.27, 35
46.28, 41
46.29, 42
46.3, 38
46.31, 45
46.32, 43
46.33, 52
46.34, 37
46.35, 34
46.36, 40
46.37, 45
46.38, 40
46.39, 41
46.4, 48
46.41, 40
46.42, 42
46.43, 36
46.44, 41
46.45, 38
46.46, 52
46.47, 47
46.48, 33
46.49, 47
46.5, 30
46.51, 37
46.52, 45
46.53, 36
46.54, 26
46.55, 27
46.56, 34
46.57, 41
46.58, 39
46.59, 42
46.6, 40
46.61, 33
46.62, 29
46.63, 40
46.64, 29
46.65, 36
46.66, 39
46.67, 39
46.68, 40
46.69, 31
46.7, 40
46.71, 41
46.72, 41
46.73, 38
46.74, 39
46.75, 50
46.76, 48
46.77, 32
46.78, 36
46.79, 51
46.8, 50
46.81, 49
46.82, 42
46.83, 47
46.84, 35
46.85, 40
46.86, 52
46.87, 39
46.88, 48
46.89, 42
46.9, 45
46.91, 49
46.92, 47
46.93, 37
46.94, 44
46.95, 38
46.96, 35
46.97, 34
46.98, 33
46.99, 37
47, 27
47.01, 39
47.02, 36
47.03, 35
47.04, 31
47.05, 38
47.06, 39
47.07, 42
47.08, 43
47.09, 40
47.1, 32
47.11, 34
47.12, 44
47.13, 36
47.14, 37
47.15, 38
47.16, 60
47.17, 35
47.18, 37
47.19, 34
47.2, 41
47.21, 51
47.22, 39
47.23, 25
47.24, 44
47.25, 41
47.26, 40
47.27, 37
47.28, 32
47.29, 41
47.3, 59
47.31, 42
47.32, 44
47.33, 46
47.34, 36
47.35, 49
47.36, 35
47.37, 37
47.38, 38
47.39, 41
47.4, 33
47.41, 48
47.42, 34
47.43, 36
47.44, 37
47.45, 34
47.46, 38
47.47, 35
47.48, 37
47.49, 36
47.5, 47
47.51, 39
47.52, 39
47.53, 42
47.54, 36
47.55, 34
47.56, 40
47.57, 28
47.58, 40
47.59, 39
47.6, 30
47.61, 43
47.62, 36
47.63, 35
47.64, 48
47.65, 40
47.66, 30
47.67, 43
47.68, 45
47.69, 47
47.7, 45
47.71, 40
47.72, 35
47.73, 30
47.74, 38
47.75, 31
47.76, 33
47.77, 44
47.78, 40
47.79, 35
47.8, 44
47.81, 27
47.82, 46
47.83, 41
47.84, 44
47.85, 34
47.86, 41
47.87, 32
47.88, 36
47.89, 38
47.9, 49
47.91, 34
47.92, 54
47.93, 46
47.94, 26
47.95, 42
47.96, 30
47.97, 41
47.98, 48
47.99, 41
48, 50
48.01, 35
48.02, 51
48.03, 60
48.04, 80
48.05, 95
48.06, 121
48.07, 86
48.08, 117
48.09, 102
48.1, 90
48.11, 66
48.12, 62
48.13, 58
48.14, 52
48.15, 55
48.16, 47
48.17, 60
48.18, 70
48.19, 70
48.2, 81
48.21, 80
48.22, 70
48.23, 72
48.24, 39
48.25, 48
48.26, 52
48.27, 34
48.28, 42
48.29, 47
48.3, 52
48.31, 56
48.32, 33
48.33, 35
48.34, 37
48.35, 43
48.36, 36
48.37, 42
48.38, 37
48.39, 36
48.4, 47
48.41, 44
48.42, 45
48.43, 46
48.44, 37
48.45, 42
48.46, 47
48.47, 39
48.48, 61
48.49, 41
48.5, 39
48.51, 33
48.52, 37
48.53, 36
48.54, 38
48.55, 40
48.56, 53
48.57, 43
48.58, 42
48.59, 48
48.6, 53
48.61, 52
48.62, 54
48.63, 67
48.64, 44
48.65, 58
48.66, 58
48.67, 74
48.68, 78
48.69, 67
48.7, 69
48.71, 75
48.72, 57
48.73, 74
48.74, 67
48.75, 61
48.76, 63
48.77, 58
48.78, 63
48.79, 50
48.8, 56
48.81, 68
48.82, 68
48.83, 49
48.84, 49
48.85, 38
48.86, 56
48.87, 43
48.88, 44
48.89, 51
48.9, 34
48.91, 47
48.92, 47
48.93, 49
48.94, 46
48.95, 52
48.96, 40
48.97, 47
48.98, 43
48.99, 48
49, 25
49.01, 45
49.02, 38
49.03, 36
49.04, 37
49.05, 39
49.06, 48
49.07, 35
49.08, 30
49.09, 37
49.1, 30
49.11, 41
49.12, 26
49.13, 27
49.14, 33
49.15, 45
49.16, 42
49.17, 43
49.18, 47
49.19, 44
49.2, 39
49.21, 35
49.22, 35
49.23, 41
49.24, 37
49.25, 48
49.26, 47
49.27, 40
49.28, 30
49.29, 33
49.3, 30
49.31, 36
49.32, 30
49.33, 36
49.34, 40
49.35, 31
49.36, 49
49.37, 25
49.38, 38
49.39, 44
49.4, 42
49.41, 32
49.42, 36
49.43, 29
49.44, 40
49.45, 31
49.46, 38
49.47, 36
49.48, 35
49.49, 51
49.5, 31
49.51, 50
49.52, 50
49.53, 37
49.54, 37
49.55, 37
49.56, 39
49.57, 45
49.58, 32
49.59, 26
49.6, 37
49.61, 47
49.62, 36
49.63, 33
49.64, 33
49.65, 43
49.66, 48
49.67, 45
49.68, 38
49.69, 34
49.7, 41
49.71, 31
49.72, 39
49.73, 38
49.74, 33
49.75, 45
49.76, 28
49.77, 38
49.78, 33
49.79, 47
49.8, 36
49.81, 32
49.82, 31
49.83, 31
49.84, 33
49.85, 45
49.86, 45
49.87, 34
49.88, 45
49.89, 33
49.9, 38
49.91, 48
49.92, 47
49.93, 35
49.94, 48
49.95, 32
49.96, 43
49.97, 35
49.98, 31
49.99, 37
50, 34
50.01, 44
50.02, 43
50.03, 40
50.04, 31
50.05, 33
50.06, 37
50.07, 35
50.08, 35
50.09, 34
50.1, 39
50.11, 31
50.12, 40
50.13, 39
50.14, 41
50.15, 36
50.16, 35
50.17, 36
50.18, 38
50.19, 34
50.2, 44
50.21, 40
50.22, 39
50.23, 49
50.24, 57
50.25, 56
50.26, 45
50.27, 64
50.28, 83
50.29, 92
50.3, 76
50.31, 68
50.32, 51
50.33, 44
50.34, 45
50.35, 30
50.36, 36
50.37, 38
50.38, 46
50.39, 44
50.4, 43
50.41, 54
50.42, 49
50.43, 53
50.44, 38
50.45, 43
50.46, 44
50.47, 49
50.48, 41
50.49, 37
50.5, 34
50.51, 45
50.52, 40
50.53, 30
50.54, 30
50.55, 34
50.56, 42
50.57, 32
50.58, 41
50.59, 29
50.6, 33
50.61, 35
50.62, 36
50.63, 38
50.64, 37
50.65, 30
50.66, 29
50.67, 38
50.68, 43
50.69, 34
50.7, 43
50.71, 26
50.72, 33
50.73, 37
50.74, 38
50.75, 39
50.76, 39
50.77, 41
50.78, 27
50.79, 35
50.8, 31
50.81, 29
50.82, 41
50.83, 30
50.84, 31
50.85, 29
50.86, 23
50.87, 37
50.88, 43
50.89, 41
50.9, 37
50.91, 36
50.92, 30
50.93, 26
50.94, 32
50.95, 33
50.96, 40
50.97, 32
50.98, 42
50.99, 27
51, 29
51.01, 36
51.02, 37
51.03, 27
51.04, 43
51.05, 30
51.06, 33
51.07, 38
51.08, 37
51.09, 32
51.1, 32
51.11, 46
51.12, 31
51.13, 32
51.14, 38
51.15, 30
51.16, 33
51.17, 35
51.18, 40
51.19, 42
51.2, 34
51.21, 32
51.22, 32
51.23, 22
51.24, 28
51.25, 30
51.26, 42
51.27, 36
51.28, 31
51.29, 33
51.3, 27
51.31, 34
51.32, 37
51.33, 36
51.34, 28
51.35, 33
51.36, 32
51.37, 24
51.38, 32
51.39, 35
51.4, 30
51.41, 36
51.42, 34
51.43, 25
51.44, 28
51.45, 28
51.46, 45
51.47, 29
51.48, 40
51.49, 29
51.5, 34
51.51, 37
51.52, 27
51.53, 43
51.54, 37
51.55, 43
51.56, 43
51.57, 31
51.58, 30
51.59, 25
51.6, 26
51.61, 33
51.62, 38
51.63, 34
51.64, 36
51.65, 35
51.66, 36
51.67, 39
51.68, 39
51.69, 38
51.7, 29
51.71, 37
51.72, 29
51.73, 37
51.74, 33
51.75, 35
51.76, 36
51.77, 29
51.78, 31
51.79, 47
51.8, 31
51.81, 32
51.82, 40
51.83, 39
51.84, 35
51.85, 38
51.86, 34
51.87, 38
51.88, 47
51.89, 39
51.9, 24
51.91, 37
51.92, 26
51.93, 35
51.94, 36
51.95, 42
51.96, 28
51.97, 29
51.98, 32
51.99, 40
52, 40
52.01, 34
52.02, 31
52.03, 29
52.04, 39
52.05, 35
52.06, 33
52.07, 32
52.08, 36
52.09, 29
52.1, 34
52.11, 34
52.12, 35
52.13, 28
52.14, 30
52.15, 37
52.16, 31
52.17, 33
52.18, 33
52.19, 35
52.2, 25
52.21, 32
52.22, 35
52.23, 44
52.24, 40
52.25, 31
52.26, 41
52.27, 33
52.28, 34
52.29, 33
52.3, 40
52.31, 36
52.32, 24
52.33, 41
52.34, 45
52.35, 40
52.36, 37
52.37, 34
52.38, 41
52.39, 50
52.4, 51
52.41, 43
52.42, 42
52.43, 40
52.44, 40
52.45, 22
52.46, 33
52.47, 26
52.48, 32
52.49, 38
52.5, 40
52.51, 28
52.52, 40
52.53, 39
52.54, 36
52.55, 36
52.56, 41
52.57, 36
52.58, 38
52.59, 44
52.6, 28
52.61, 32
52.62, 38
52.63, 27
52.64, 33
52.65, 30
52.66, 40
52.67, 40
52.68, 32
52.69, 26
52.7, 35
52.71, 32
52.72, 38
52.73, 47
52.74, 40
52.75, 26
52.76, 37
52.77, 32
52.78, 35
52.79, 37
52.8, 52
52.81, 35
52.82, 35
52.83, 40
52.84, 37
52.85, 35
52.86, 38
52.87, 36
52.88, 39
52.89, 37
52.9, 42
52.91, 39
52.92, 31
52.93, 34
52.94, 38
52.95, 31
52.96, 40
52.97, 34
52.98, 32
52.99, 28
53, 35
53.01, 45
53.02, 44
53.03, 42
53.04, 36
53.05, 31
53.06, 41
53.07, 42
53.08, 36
53.09, 42
53.1, 32
53.11, 26
53.12, 45
53.13, 50
53.14, 37
53.15, 36
53.16, 25
53.17, 40
53.18, 30
53.19, 33
53.2, 43
53.21, 44
53.22, 48
53.23, 36
53.24, 34
53.25, 41
53.26, 37
53.27, 35
53.28, 42
53.29, 41
53.3, 59
53.31, 35
53.32, 45
53.33, 45
53.34, 37
53.35, 45
53.36, 31
53.37, 39
53.38, 42
53.39, 35
53.4, 33
53.41, 34
53.42, 32
53.43, 50
53.44, 54
53.45, 42
53.46, 38
53.47, 36
53.48, 32
53.49, 30
53.5, 44
53.51, 37
53.52, 32
53.53, 32
53.54, 29
53.55, 29
53.56, 21
53.57, 33
53.58, 29
53.59, 29
53.6, 30
53.61, 35
53.62, 31
53.63, 38
53.64, 40
53.65, 38
53.66, 38
53.67, 40
53.68, 45
53.69, 36
53.7, 31
53.71, 36
53.72, 36
53.73, 52
53.74, 38
53.75, 43
53.76, 44
53.77, 40
53.78, 42
53.79, 25
53.8, 40
53.81, 39
53.82, 27
53.83, 49
53.84, 48
53.85, 39
53.86, 24
53.87, 38
53.88, 52
53.89, 37
53.9, 39
53.91, 43
53.92, 44
53.93, 38
53.94, 38
53.95, 38
53.96, 37
53.97, 37
53.98, 46
53.99, 40
54, 27
54.01, 29
54.02, 41
54.03, 44
54.04, 39
54.05, 41
54.06, 35
54.07, 45
54.08, 44
54.09, 45
54.1, 39
54.11, 48
54.12, 47
54.13, 38
54.14, 42
54.15, 47
54.16, 50
54.17, 46
54.18, 56
54.19, 39
54.2, 52
54.21, 43
54.22, 44
54.23, 41
54.24, 44
54.25, 47
54.26, 39
54.27, 49
54.28, 47
54.29, 59
54.3, 49
54.31, 37
54.32, 34
54.33, 51
54.34, 40
54.35, 56
54.36, 59
54.37, 57
54.38, 54
54.39, 55
54.4, 51
54.41, 50
54.42, 50
54.43, 42
54.44, 71
54.45, 48
54.46, 56
54.47, 38
54.48, 51
54.49, 64
54.5, 42
54.51, 58
54.52, 51
54.53, 54
54.54, 49
54.55, 49
54.56, 55
54.57, 41
54.58, 42
54.59, 42
54.6, 39
54.61, 50
54.62, 53
54.63, 37
54.64, 45
54.65, 53
54.66, 53
54.67, 36
54.68, 44
54.69, 45
54.7, 34
54.71, 35
54.72, 40
54.73, 54
54.74, 55
54.75, 57
54.76, 37
54.77, 45
54.78, 33
54.79, 44
54.8, 63
54.81, 38
54.82, 57
54.83, 47
54.84, 38
54.85, 38
54.86, 38
54.87, 39
54.88, 32
54.89, 44
54.9, 47
54.91, 32
54.92, 31
54.93, 47
54.94, 47
54.95, 48
54.96, 42
54.97, 43
54.98, 51
54.99, 46
55, 34
55.01, 30
55.02, 42
55.03, 39
55.04, 48
55.05, 36
55.06, 38
55.07, 43
55.08, 44
55.09, 38
55.1, 45
55.11, 40
55.12, 44
55.13, 43
55.14, 45
55.15, 41
55.16, 30
55.17, 52
55.18, 32
55.19, 44
55.2, 45
55.21, 41
55.22, 49
55.23, 41
55.24, 36
55.25, 49
55.26, 35
55.27, 36
55.28, 38
55.29, 30
55.3, 34
55.31, 37
55.32, 43
55.33, 36
55.34, 46
55.35, 26
55.36, 43
55.37, 42
55.38, 40
55.39, 41
55.4, 38
55.41, 41
55.42, 49
55.43, 38
55.44, 44
55.45, 30
55.46, 48
55.47, 38
55.48, 40
55.49, 46
55.5, 38
55.51, 38
55.52, 36
55.53, 39
55.54, 52
55.55, 31
55.56, 45
55.57, 34
55.58, 38
55.59, 40
55.6, 59
55.61, 67
55.62, 46
55.63, 64
55.64, 68
55.65, 92
55.66, 81
55.67, 92
55.68, 121
55.69, 86
55.7, 91
55.71, 69
55.72, 74
55.73, 71
55.74, 42
55.75, 56
55.76, 57
55.77, 40
55.78, 61
55.79, 74
55.8, 69
55.81, 69
55.82, 72
55.83, 63
55.84, 59
55.85, 73
55.86, 54
55.87, 47
55.88, 58
55.89, 44
55.9, 38
55.91, 43
55.92, 48
55.93, 41
55.94, 38
55.95, 43
55.96, 40
55.97, 49
55.98, 32
55.99, 34
56, 47
56.01, 39
56.02, 48
56.03, 55
56.04, 40
56.05, 44
56.06, 30
56.07, 42
56.08, 49
56.09, 48
56.1, 49
56.11, 40
56.12, 49
56.13, 46
56.14, 54
56.15, 75
56.16, 54
56.17, 43
56.18, 51
56.19, 59
56.2, 26
56.21, 49
56.22, 32
56.23, 45
56.24, 32
56.25, 46
56.26, 33
56.27, 39
56.28, 41
56.29, 53
56.3, 46
56.31, 50
56.32, 39
56.33, 42
56.34, 40
56.35, 35
56.36, 47
56.37, 39
56.38, 39
56.39, 41
56.4, 41
56.41, 40
56.42, 41
56.43, 38
56.44, 38
56.45, 34
56.46, 38
56.47, 47
56.48, 32
56.49, 41
56.5, 34
56.51, 25
56.52, 35
56.53, 36
56.54, 34
56.55, 45
56.56, 37
56.57, 31
56.58, 42
56.59, 48
56.6, 41
56.61, 30
56.62, 40
56.63, 35
56.64, 37
56.65, 33
56.66, 34
56.67, 27
56.68, 34
56.69, 25
56.7, 38
56.71, 42
56.72, 32
56.73, 42
56.74, 46
56.75, 46
56.76, 51
56.77, 34
56.78, 38
56.79, 43
56.8, 42
56.81, 47
56.82, 42
56.83, 47
56.84, 49
56.85, 51
56.86, 59
56.87, 54
56.88, 54
56.89, 28
56.9, 54
56.91, 48
56.92, 38
56.93, 39
56.94, 40
56.95, 42
56.96, 41
56.97, 47
56.98, 61
56.99, 38
57, 54
57.01, 46
57.02, 55
57.03, 38
57.04, 27
57.05, 36
57.06, 43
57.07, 44
57.08, 42
57.09, 37
57.1, 34
57.11, 32
57.12, 38
57.13, 44
57.14, 46
57.15, 48
57.16, 34
57.17, 38
57.18, 39
57.19, 48
57.2, 46
57.21, 39
57.22, 35
57.23, 54
57.24, 37
57.25, 34
57.26, 40
57.27, 41
57.28, 33
57.29, 34
57.3, 42
57.31, 35
57.32, 32
57.33, 43
57.34, 44
57.35, 42
57.36, 36
57.37, 37
57.38, 40
57.39, 46
57.4, 30
57.41, 33
57.42, 53
57.43, 40
57.44, 39
57.45, 43
57.46, 37
57.47, 45
57.48, 30
57.49, 36
57.5, 31
57.51, 35
57.52, 29
57.53, 34
57.54, 45
57.55, 33
57.56, 28
57.57, 38
57.58, 47
57.59, 29
57.6, 35
57.61, 40
57.62, 41
57.63, 49
57.64, 28
57.65, 36
57.66, 40
57.67, 35
57.68, 35
57.69, 39
57.7, 32
57.71, 44
57.72, 37
57.73, 31
57.74, 33
57.75, 50
57.76, 34
57.77, 24
57.78, 29
57.79, 29
57.8, 36
57.81, 48
57.82, 26
57.83, 36
57.84, 43
57.85, 36
57.86, 35
57.87, 45
57.88, 41
57.89, 31
57.9, 37
57.91, 36
57.92, 48
57.93, 46
57.94, 50
57.95, 40
57.96, 50
57.97, 45
57.98, 39
57.99, 35
58, 45
58.01, 38
58.02, 42
58.03, 36
58.04, 36
58.05, 48
58.06, 44
58.07, 42
58.08, 53
58.09, 37
58.1, 51
58.11, 42
58.12, 56
58.13, 67
58.14, 82
58.15, 78
58.16, 70
58.17, 85
58.18, 53
58.19, 66
58.2, 52
58.21, 41
58.22, 44
58.23, 44
58.24, 40
58.25, 47
58.26, 48
58.27, 49
58.28, 51
58.29, 51
58.3, 53
58.31, 58
58.32, 57
58.33, 62
58.34, 43
58.35, 42
58.36, 56
58.37, 62
58.38, 42
58.39, 44
58.4, 47
58.41, 42
58.42, 53
58.43, 51
58.44, 50
58.45, 61
58.46, 51
58.47, 39
58.48, 39
58.49, 51
58.5, 48
58.51, 42
58.52, 36
58.53, 35
58.54, 42
58.55, 34
58.56, 50
58.57, 39
58.58, 50
58.59, 58
58.6, 49
58.61, 47
58.62, 36
58.63, 49
58.64, 32
58.65, 43
58.66, 53
58.67, 40
58.68, 28
58.69, 45
58.7, 34
58.71, 36
58.72, 27
58.73, 41
58.74, 40
58.75, 44
58.76, 40
58.77, 31
58.78, 43
58.79, 29
58.8, 37
58.81, 26
58.82, 35
58.83, 32
58.84, 35
58.85, 29
58.86, 31
58.87, 50
58.88, 47
58.89, 43
58.9, 39
58.91, 34
58.92, 41
58.93, 32
58.94, 35
58.95, 45
58.96, 36
58.97, 31
58.98, 36
58.99, 34
59, 42
59.01, 34
59.02, 47
59.03, 33
59.04, 41
59.05, 45
59.06, 28
59.07, 48
59.08, 55
59.09, 47
59.1, 54
59.11, 54
59.12, 53
59.13, 50
59.14, 47
59.15, 57
59.16, 67
59.17, 53
59.18, 47
59.19, 53
59.2, 40
59.21, 62
59.22, 37
59.23, 49
59.24, 60
59.25, 56
59.26, 59
59.27, 59
59.28, 65
59.29, 65
59.3, 61
59.31, 61
59.32, 59
59.33, 53
59.34, 56
59.35, 40
59.36, 62
59.37, 52
59.38, 57
59.39, 40
59.4, 44
59.41, 44
59.42, 56
59.43, 55
59.44, 49
59.45, 45
59.46, 49
59.47, 49
59.48, 52
59.49, 32
59.5, 40
59.51, 41
59.52, 43
59.53, 44
59.54, 42
59.55, 42
59.56, 38
59.57, 34
59.58, 34
59.59, 42
59.6, 38
59.61, 47
59.62, 38
59.63, 39
59.64, 40
59.65, 36
59.66, 33
59.67, 34
59.68, 38
59.69, 38
59.7, 35
59.71, 35
59.72, 33
59.73, 36
59.74, 38
59.75, 38
59.76, 37
59.77, 34
59.78, 32
59.79, 34
59.8, 51
59.81, 38
59.82, 42
59.83, 26
59.84, 40
59.85, 35
59.86, 38
59.87, 38
59.88, 28
59.89, 33
59.9, 28
59.91, 33
59.92, 41
59.93, 32
59.94, 53
59.95, 38
59.96, 38
59.97, 34
59.98, 50
59.99, 35
60, 40
60.01, 26
60.02, 35
60.03, 33
60.04, 44
60.05, 54
60.06, 36
60.07, 49
60.08, 33
60.09, 32
60.1, 34
60.11, 42
60.12, 31
60.13, 45
60.14, 43
60.15, 40
60.16, 47
60.17, 32
60.18, 55
60.19, 36
60.2, 29
60.21, 43
60.22, 49
60.23, 40
60.24, 32
60.25, 38
60.26, 31
60.27, 41
60.28, 50
60.29, 47
60.3, 43
60.31, 61
60.32, 45
60.33, 61
60.34, 68
60.35, 92
60.36, 95
60.37, 78
60.38, 75
60.39, 58
60.4, 47
60.41, 52
60.42, 51
60.43, 52
60.44, 51
60.45, 40
60.46, 40
60.47, 45
60.48, 56
60.49, 48
60.5, 55
60.51, 63
60.52, 59
60.53, 70
60.54, 74
60.55, 68
60.56, 70
60.57, 70
60.58, 54
60.59, 44
60.6, 54
60.61, 63
60.62, 63
60.63, 44
60.64, 59
60.65, 42
60.66, 38
60.67, 41
60.68, 53
60.69, 49
60.7, 51
60.71, 52
60.72, 52
60.73, 54
60.74, 46
60.75, 46
60.76, 45
60.77, 49
60.78, 42
60.79, 53
60.8, 37
60.81, 62
60.82, 36
60.83, 50
60.84, 57
60.85, 38
60.86, 44
60.87, 40
60.88, 39
60.89, 36
60.9, 36
60.91, 41
60.92, 36
60.93, 43
60.94, 39
60.95, 55
60.96, 66
60.97, 44
60.98, 30
60.99, 38
61, 48
61.01, 48
61.02, 45
61.03, 45
61.04, 37
61.05, 32
61.06, 48
61.07, 42
61.08, 44
61.09, 37
61.1, 44
61.11, 37
61.12, 46
61.13, 54
61.14, 44
61.15, 35
61.16, 48
61.17, 51
61.18, 33
61.19, 56
61.2, 48
61.21, 55
61.22, 55
61.23, 46
61.24, 43
61.25, 57
61.26, 53
61.27, 47
61.28, 56
61.29, 37
61.3, 29
61.31, 45
61.32, 34
61.33, 49
61.34, 35
61.35, 40
61.36, 40
61.37, 54
61.38, 49
61.39, 56
61.4, 48
61.41, 49
61.42, 47
61.43, 40
61.44, 31
61.45, 43
61.46, 40
61.47, 36
61.48, 34
61.49, 50
61.5, 49
61.51, 39
61.52, 46
61.53, 49
61.54, 63
61.55, 71
61.56, 56
61.57, 58
61.58, 67
61.59, 52
61.6, 53
61.61, 46
61.62, 47
61.63, 42
61.64, 49
61.65, 31
61.66, 52
61.67, 60
61.68, 43
61.69, 53
61.7, 57
61.71, 53
61.72, 62
61.73, 74
61.74, 75
61.75, 69
61.76, 55
61.77, 52
61.78, 42
61.79, 52
61.8, 54
61.81, 44
61.82, 51
61.83, 34
61.84, 52
61.85, 50
61.86, 45
61.87, 49
61.88, 50
61.89, 48
61.9, 42
61.91, 59
61.92, 41
61.93, 44
61.94, 32
61.95, 45
61.96, 44
61.97, 38
61.98, 29
61.99, 36
62, 36
62.01, 42
62.02, 34
62.03, 39
62.04, 38
62.05, 41
62.06, 35
62.07, 33
62.08, 32
62.09, 36
62.1, 40
62.11, 33
62.12, 34
62.13, 49
62.14, 40
62.15, 44
62.16, 26
62.17, 33
62.18, 37
62.19, 32
62.2, 39
62.21, 23
62.22, 37
62.23, 44
62.24, 27
62.25, 39
62.26, 29
62.27, 34
62.28, 29
62.29, 27
62.3, 24
62.31, 34
62.32, 33
62.33, 25
62.34, 36
62.35, 29
62.36, 43
62.37, 32
62.38, 33
62.39, 31
62.4, 34
62.41, 36
62.42, 22
62.43, 38
62.44, 30
62.45, 30
62.46, 30
62.47, 40
62.48, 38
62.49, 36
62.5, 29
62.51, 43
62.52, 33
62.53, 27
62.54, 46
62.55, 40
62.56, 33
62.57, 45
62.58, 37
62.59, 29
62.6, 39
62.61, 42
62.62, 31
62.63, 41
62.64, 38
62.65, 41
62.66, 34
62.67, 35
62.68, 43
62.69, 38
62.7, 41
62.71, 37
62.72, 33
62.73, 33
62.74, 39
62.75, 39
62.76, 39
62.77, 38
62.78, 35
62.79, 46
62.8, 44
62.81, 46
62.82, 36
62.83, 51
62.84, 39
62.85, 32
62.86, 37
62.87, 41
62.88, 49
62.89, 47
62.9, 24
62.91, 34
62.92, 32
62.93, 29
62.94, 47
62.95, 45
62.96, 42
62.97, 35
62.98, 26
62.99, 30
63, 26
63.01, 35
63.02, 47
63.03, 37
63.04, 57
63.05, 39
63.06, 34
63.07, 31
63.08, 30
63.09, 43
63.1, 41
63.11, 52
63.12, 26
63.13, 33
63.14, 49
63.15, 53
63.16, 41
63.17, 45
63.18, 53
63.19, 39
63.2, 52
63.21, 36
63.22, 38
63.23, 50
63.24, 40
63.25, 38
63.26, 26
63.27, 43
63.28, 39
63.29, 35
63.3, 48
63.31, 37
63.32, 48
63.33, 39
63.34, 44
63.35, 40
63.36, 45
63.37, 38
63.38, 37
63.39, 45
63.4, 35
63.41, 37
63.42, 49
63.43, 42
63.44, 37
63.45, 39
63.46, 37
63.47, 39
63.48, 33
63.49, 29
63.5, 36
63.51, 38
63.52, 42
63.53, 50
63.54, 44
63.55, 34
63.56, 30
63.57, 44
63.58, 33
63.59, 45
63.6, 39
63.61, 38
63.62, 41
63.63, 33
63.64, 36
63.65, 41
63.66, 33
63.67, 39
63.68, 40
63.69, 39
63.7, 33
63.71, 41
63.72, 32
63.73, 40
63.74, 48
63.75, 44
63.76, 61
63.77, 69
63.78, 71
63.79, 82
63.8, 77
63.81, 52
63.82, 61
63.83, 45
63.84, 46
63.85, 41
63.86, 39
63.87, 37
63.88, 40
63.89, 33
63.9, 54
63.91, 30
63.92, 53
63.93, 36
63.94, 51
63.95, 50
63.96, 52
63.97, 54
63.98, 53
63.99, 44
64, 44
64.01, 29
64.02, 31
64.03, 37
64.04, 48
64.05, 44
64.06, 32
64.07, 28
64.08, 38
64.09, 32
64.1, 39
64.11, 37
64.12, 40
64.13, 45
64.14, 42
64.15, 48
64.16, 35
64.17, 49
64.18, 33
64.19, 27
64.2, 45
64.21, 42
64.22, 38
64.23, 38
64.24, 28
64.25, 52
64.26, 35
64.27, 24
64.28, 44
64.29, 37
64.3, 26
64.31, 33
64.32, 36
64.33, 43
64.34, 37
64.35, 35
64.36, 36
64.37, 36
64.38, 41
64.39, 31
64.4, 43
64.41, 44
64.42, 56
64.43, 43
64.44, 37
64.45, 45
64.46, 47
64.47, 36
64.48, 37
64.49, 51
64.5, 27
64.51, 32
64.52, 37
64.53, 44
64.54, 34
64.55, 36
64.56, 34
64.57, 28
64.58, 50
64.59, 34
64.6, 42
64.61, 47
64.62, 38
64.63, 53
64.64, 37
64.65, 38
64.66, 30
64.67, 54
64.68, 64
64.69, 59
64.7, 58
64.71, 53
64.72, 64
64.73, 65
64.74, 59
64.75, 81
64.76, 82
64.77, 115
64.78, 148
64.79, 181
64.8, 185
64.81, 228
64.82, 226
64.83, 179
64.84, 173
64.85, 135
64.86, 97
64.87, 95
64.88, 71
64.89, 73
64.9, 72
64.91, 58
64.92, 74
64.93, 66
64.94, 96
64.95, 85
64.96, 92
64.97, 109
64.98, 102
64.99, 116
65, 113
65.01, 126
65.02, 94
65.03, 96
65.04, 81
65.05, 57
65.06, 61
65.07, 47
65.08, 55
65.09, 51
65.1, 42
65.11, 45
65.12, 45
65.13, 30
65.14, 29
65.15, 38
65.16, 27
65.17, 44
65.18, 43
65.19, 43
65.2, 35
65.21, 39
65.22, 29
65.23, 40
65.24, 34
65.25, 51
65.26, 38
65.27, 44
65.28, 26
65.29, 31
65.3, 33
65.31, 28
65.32, 37
65.33, 36
65.34, 35
65.35, 35
65.36, 46
65.37, 42
65.38, 35
65.39, 33
65.4, 47
65.41, 38
65.42, 38
65.43, 46
65.44, 30
65.45, 38
65.46, 37
65.47, 40
65.48, 39
65.49, 34
65.5, 40
65.51, 31
65.52, 25
65.53, 34
65.54, 33
65.55, 39
65.56, 41
65.57, 35
65.58, 28
65.59, 35
65.6, 31
65.61, 41
65.62, 52
65.63, 31
65.64, 38
65.65, 36
65.66, 35
65.67, 38
65.68, 36
65.69, 47
65.7, 30
65.71, 37
65.72, 47
65.73, 30
65.74, 34
65.75, 50
65.76, 28
65.77, 39
65.78, 41
65.79, 43
65.8, 35
65.81, 53
65.82, 48
65.83, 43
65.84, 49
65.85, 42
65.86, 38
65.87, 50
65.88, 45
65.89, 30
65.9, 27
65.91, 29
65.92, 35
65.93, 38
65.94, 34
65.95, 27
65.96, 35
65.97, 38
65.98, 29
65.99, 45
66, 32
66.01, 60
66.02, 39
66.03, 39
66.04, 32
66.05, 41
66.06, 42
66.07, 39
66.08, 38
66.09, 41
66.1, 39
66.11, 30
66.12, 43
66.13, 36
66.14, 48
66.15, 33
66.16, 37
66.17, 31
66.18, 45
66.19, 46
66.2, 48
66.21, 35
66.22, 38
66.23, 42
66.24, 31
66.25, 24
66.26, 49
66.27, 38
66.28, 36
66.29, 36
66.3, 46
66.31, 35
66.32, 38
66.33, 44
66.34, 49
66.35, 37
66.36, 39
66.37, 33
66.38, 37
66.39, 32
66.4, 30
66.41, 43
66.42, 36
66.43, 42
66.44, 45
66.45, 45
66.46, 34
66.47, 54
66.48, 50
66.49, 51
66.5, 34
66.51, 44
66.52, 36
66.53, 39
66.54, 34
66.55, 31
66.56, 35
66.57, 55
66.58, 45
66.59, 46
66.6, 53
66.61, 39
66.62, 38
66.63, 48
66.64, 53
66.65, 39
66.66, 35
66.67, 49
66.68, 46
66.69, 32
66.7, 42
66.71, 42
66.72, 25
66.73, 49
66.74, 48
66.75, 43
66.76, 43
66.77, 38
66.78, 53
66.79, 66
66.8, 44
66.81, 42
66.82, 47
66.83, 40
66.84, 45
66.85, 41
66.86, 51
66.87, 37
66.88, 47
66.89, 55
66.9, 45
66.91, 41
66.92, 47
66.93, 39
66.94, 51
66.95, 47
66.96, 36
66.97, 53
66.98, 40
66.99, 46
67, 62
67.01, 45
67.02, 50
67.03, 46
67.04, 55
67.05, 40
67.06, 45
67.07, 48
67.08, 44
67.09, 33
67.1, 49
67.11, 51
67.12, 46
67.13, 50
67.14, 56
67.15, 47
67.16, 50
67.17, 49
67.18, 36
67.19, 35
67.2, 45
67.21, 48
67.22, 58
67.23, 47
67.24, 42
67.25, 44
67.26, 59
67.27, 34
67.28, 45
67.29, 51
67.3, 51
67.31, 51
67.32, 44
67.33, 50
67.34, 54
67.35, 48
67.36, 40
67.37, 38
67.38, 55
67.39, 50
67.4, 56
67.41, 47
67.42, 32
67.43, 47
67.44, 55
67.45, 52
67.46, 44
67.47, 42
67.48, 48
67.49, 43
67.5, 45
67.51, 47
67.52, 38
67.53, 54
67.54, 49
67.55, 37
67.56, 51
67.57, 32
67.58, 58
67.59, 59
67.6, 40
67.61, 49
67.62, 45
67.63, 41
67.64, 54
67.65, 53
67.66, 44
67.67, 39
67.68, 49
67.69, 31
67.7, 39
67.71, 40
67.72, 40
67.73, 34
67.74, 40
67.75, 42
67.76, 24
67.77, 49
67.78, 29
67.79, 30
67.8, 42
67.81, 29
67.82, 36
67.83, 36
67.84, 49
67.85, 44
67.86, 35
67.87, 33
67.88, 42
67.89, 40
67.9, 37
67.91, 39
67.92, 34
67.93, 31
67.94, 35
67.95, 48
67.96, 47
67.97, 35
67.98, 35
67.99, 34
68, 35
68.01, 31
68.02, 52
68.03, 44
68.04, 40
68.05, 40
68.06, 37
68.07, 37
68.08, 32
68.09, 41
68.1, 36
68.11, 39
68.12, 46
68.13, 38
68.14, 30
68.15, 34
68.16, 46
68.17, 37
68.18, 27
68.19, 31
68.2, 42
68.21, 44
68.22, 29
68.23, 26
68.24, 39
68.25, 36
68.26, 33
68.27, 38
68.28, 37
68.29, 38
68.3, 33
68.31, 43
68.32, 36
68.33, 27
68.34, 23
68.35, 40
68.36, 41
68.37, 39
68.38, 38
68.39, 29
68.4, 35
68.41, 37
68.42, 44
68.43, 32
68.44, 37
68.45, 44
68.46, 34
68.47, 43
68.48, 31
68.49, 44
68.5, 41
68.51, 30
68.52, 31
68.53, 40
68.54, 26
68.55, 34
68.56, 44
68.57, 30
68.58, 34
68.59, 45
68.6, 40
68.61, 45
68.62, 39
68.63, 31
68.64, 33
68.65, 40
68.66, 38
68.67, 30
68.68, 41
68.69, 44
68.7, 55
68.71, 40
68.72, 34
68.73, 41
68.74, 67
68.75, 54
68.76, 57
68.77, 59
68.78, 48
68.79, 50
68.8, 45
68.81, 39
68.82, 47
68.83, 40
68.84, 34
68.85, 39
68.86, 34
68.87, 43
68.88, 46
68.89, 31
68.9, 42
68.91, 37
68.92, 42
68.93, 42
68.94, 42
68.95, 48
68.96, 52
68.97, 34
68.98, 34
68.99, 51
69, 39
69.01, 41
69.02, 38
69.03, 43
69.04, 43
69.05, 51
69.06, 43
69.07, 32
69.08, 40
69.09, 32
69.1, 25
69.11, 35
69.12, 50
69.13, 30
69.14, 32
69.15, 35
69.16, 26
69.17, 33
69.18, 30
69.19, 39
69.2, 32
69.21, 38
69.22, 31
69.23, 50
69.24, 39
69.25, 41
69.26, 47
69.27, 44
69.28, 45
69.29, 59
69.3, 50
69.31, 49
69.32, 46
69.33, 38
69.34, 46
69.35, 39
69.36, 39
69.37, 33
69.38, 42
69.39, 28
69.4, 29
69.41, 34
69.42, 45
69.43, 34
69.44, 37
69.45, 39
69.46, 33
69.47, 45
69.48, 35
69.49, 44
69.5, 39
69.51, 45
69.52, 30
69.53, 47
69.54, 36
69.55, 33
69.56, 37
69.57, 42
69.58, 43
69.59, 37
69.6, 32
69.61, 23
69.62, 32
69.63, 29
69.64, 32
69.65, 43
69.66, 33
69.67, 36
69.68, 23
69.69, 28
69.7, 35
69.71, 33
69.72, 34
69.73, 40
69.74, 31
69.75, 34
69.76, 39
69.77, 24
69.78, 38
69.79, 33
69.8, 30
69.81, 41
69.82, 33
69.83, 37
69.84, 36
69.85, 50
69.86, 29
69.87, 31
69.88, 24
69.89, 40
69.9, 37
69.91, 28
69.92, 36
69.93, 40
69.94, 31
69.95, 39
69.96, 36
69.97, 33
69.98, 31
69.99, 39
70, 35
70.01, 30
70.02, 37
70.03, 25
70.04, 38
70.05, 38
70.06, 40
70.07, 41
70.08, 43
70.09, 46
70.1, 39
70.11, 33
70.12, 46
70.13, 45
70.14, 47
70.15, 42
70.16, 30
70.17, 39
70.18, 29
70.19, 32
70.2, 42
70.21, 50
70.22, 33
70.23, 37
70.24, 38
70.25, 47
70.26, 39
70.27, 38
70.28, 45
70.29, 37
70.3, 40
70.31, 39
70.32, 42
70.33, 48
70.34, 40
70.35, 42
70.36, 51
70.37, 40
70.38, 41
70.39, 54
70.4, 55
70.41, 37
70.42, 51
70.43, 56
70.44, 47
70.45, 53
70.46, 55
70.47, 50
70.48, 50
70.49, 51
70.5, 53
70.51, 45
70.52, 53
70.53, 53
70.54, 47
70.55, 54
70.56, 57
70.57, 49
70.58, 51
70.59, 52
70.6, 46
70.61, 41
70.62, 42
70.63, 47
70.64, 47
70.65, 47
70.66, 53
70.67, 44
70.68, 45
70.69, 49
70.7, 36
70.71, 49
70.72, 48
70.73, 34
70.74, 39
70.75, 46
70.76, 50
70.77, 42
70.78, 39
70.79, 34
70.8, 44
70.81, 41
70.82, 41
70.83, 40
70.84, 35
70.85, 34
70.86, 33
70.87, 41
70.88, 41
70.89, 30
70.9, 38
70.91, 27
70.92, 40
70.93, 50
70.94, 28
70.95, 36
70.96, 37
70.97, 55
70.98, 30
70.99, 28
71, 37
71.01, 35
71.02, 43
71.03, 26
71.04, 30
71.05, 43
71.06, 32
71.07, 37
71.08, 39
71.09, 38
71.1, 24
71.11, 34
71.12, 32
71.13, 39
71.14, 40
71.15, 41
71.16, 32
71.17, 35
71.18, 31
71.19, 29
71.2, 36
71.21, 42
71.22, 45
71.23, 38
71.24, 45
71.25, 43
71.26, 28
71.27, 36
71.28, 44
71.29, 35
71.3, 31
71.31, 42
71.32, 46
71.33, 41
71.34, 41
71.35, 39
71.36, 44
71.37, 45
71.38, 48
71.39, 42
71.4, 51
71.41, 34
71.42, 40
71.43, 40
71.44, 38
71.45, 33
71.46, 39
71.47, 26
71.48, 41
71.49, 35
71.5, 44
71.51, 37
71.52, 45
71.53, 43
71.54, 52
71.55, 35
71.56, 49
71.57, 35
71.58, 50
71.59, 41
71.6, 43
71.61, 47
71.62, 35
71.63, 35
71.64, 33
71.65, 40
71.66, 49
71.67, 36
71.68, 44
71.69, 31
71.7, 44
71.71, 37
71.72, 38
71.73, 36
71.74, 45
71.75, 40
71.76, 34
71.77, 34
71.78, 40
71.79, 38
71.8, 38
71.81, 37
71.82, 37
71.83, 41
71.84, 30
71.85, 29
71.86, 43
71.87, 42
71.88, 33
71.89, 31
71.9, 45
71.91, 30
71.92, 32
71.93, 37
71.94, 34
71.95, 50
71.96, 37
71.97, 42
71.98, 42
71.99, 47
72, 48
72.01, 57
72.02, 59
72.03, 46
72.04, 56
72.05, 55
72.06, 69
72.07, 88
72.08, 79
72.09, 95
72.1, 85
72.11, 65
72.12, 64
72.13, 58
72.14, 45
72.15, 57
72.16, 40
72.17, 58
72.18, 39
72.19, 42
72.2, 41
72.21, 53
72.22, 40
72.23, 54
72.24, 52
72.25, 58
72.26, 44
72.27, 59
72.28, 76
72.29, 58
72.3, 70
72.31, 51
72.32, 64
72.33, 44
72.34, 38
72.35, 47
72.36, 35
72.37, 44
72.38, 47
72.39, 39
72.4, 35
72.41, 25
72.42, 35
72.43, 34
72.44, 33
72.45, 46
72.46, 26
72.47, 31
72.48, 47
72.49, 44
72.5, 36
72.51, 35
72.52, 34
72.53, 37
72.54, 40
72.55, 47
72.56, 51
72.57, 33
72.58, 37
72.59, 34
72.6, 28
72.61, 29
72.62, 34
72.63, 36
72.64, 50
72.65, 42
72.66, 33
72.67, 40
72.68, 31
72.69, 40
72.7, 43
72.71, 40
72.72, 44
72.73, 42
72.74, 36
72.75, 46
72.76, 34
72.77, 48
72.78, 41
72.79, 42
72.8, 54
72.81, 50
72.82, 40
72.83, 52
72.84, 57
72.85, 48
72.86, 43
72.87, 34
72.88, 42
72.89, 48
72.9, 39
72.91, 46
72.92, 34
72.93, 43
72.94, 48
72.95, 43
72.96, 42
72.97, 41
72.98, 53
72.99, 46
73, 59
73.01, 57
73.02, 58
73.03, 52
73.04, 54
73.05, 70
73.06, 61
73.07, 48
73.08, 45
73.09, 50
73.1, 45
73.11, 51
73.12, 40
73.13, 51
73.14, 47
73.15, 40
73.16, 52
73.17, 52
73.18, 37
73.19, 38
73.2, 34
73.21, 45
73.22, 34
73.23, 43
73.24, 34
73.25, 37
73.26, 49
73.27, 50
73.28, 48
73.29, 39
73.3, 44
73.31, 37
73.32, 45
73.33, 43
73.34, 36
73.35, 51
73.36, 38
73.37, 34
73.38, 40
73.39, 38
73.4, 31
73.41, 30
73.42, 48
73.43, 40
73.44, 36
73.45, 41
73.46, 37
73.47, 30
73.48, 43
73.49, 38
73.5, 46
73.51, 37
73.52, 33
73.53, 36
73.54, 40
73.55, 33
73.56, 35
73.57, 45
73.58, 29
73.59, 42
73.6, 30
73.61, 32
73.62, 40
73.63, 33
73.64, 57
73.65, 46
73.66, 41
73.67, 36
73.68, 40
73.69, 39
73.7, 36
73.71, 30
73.72, 35
73.73, 39
73.74, 50
73.75, 32
73.76, 39
73.77, 33
73.78, 25
73.79, 39
73.8, 39
73.81, 30
73.82, 33
73.83, 34
73.84, 43
73.85, 24
73.86, 35
73.87, 43
73.88, 40
73.89, 46
73.9, 41
73.91, 44
73.92, 45
73.93, 38
73.94, 38
73.95, 48
73.96, 48
73.97, 40
73.98, 32
73.99, 37
74, 43
74.01, 38
74.02, 36
74.03, 41
74.04, 36
74.05, 36
74.06, 48
74.07, 30
74.08, 34
74.09, 36
74.1, 44
74.11, 30
74.12, 40
74.13, 34
74.14, 33
74.15, 35
74.16, 39
74.17, 30
74.18, 36
74.19, 38
74.2, 42
74.21, 38
74.22, 32
74.23, 39
74.24, 34
74.25, 34
74.26, 46
74.27, 36
74.28, 32
74.29, 34
74.3, 42
74.31, 44
74.32, 35
74.33, 39
74.34, 41
74.35, 29
74.36, 34
74.37, 35
74.38, 37
74.39, 57
74.4, 43
74.41, 34
74.42, 38
74.43, 38
74.44, 32
74.45, 31
74.46, 29
74.47, 48
74.48, 41
74.49, 48
74.5, 33
74.51, 35
74.52, 47
74.53, 42
74.54, 39
74.55, 51
74.56, 39
74.57, 37
74.58, 48
74.59, 27
74.6, 29
74.61, 46
74.62, 47
74.63, 31
74.64, 45
74.65, 34
74.66, 37
74.67, 39
74.68, 35
74.69, 41
74.7, 34
74.71, 48
74.72, 42
74.73, 51
74.74, 38
74.75, 37
74.76, 39
74.77, 39
74.78, 33
74.79, 39
74.8, 35
74.81, 50
74.82, 37
74.83, 33
74.84, 37
74.85, 39
74.86, 37
74.87, 37
74.88, 37
74.89, 48
74.9, 31
74.91, 32
74.92, 36
74.93, 40
74.94, 26
74.95, 28
74.96, 35
74.97, 29
74.98, 27
74.99, 38
75, 39
75.01, 40
75.02, 36
75.03, 31
75.04, 35
75.05, 41
75.06, 35
75.07, 29
75.08, 40
75.09, 27
75.1, 42
75.11, 42
75.12, 29
75.13, 49
75.14, 28
75.15, 24
75.16, 25
75.17, 32
75.18, 37
75.19, 25
75.2, 36
75.21, 38
75.22, 30
75.23, 25
75.24, 37
75.25, 42
75.26, 26
75.27, 26
75.28, 30
75.29, 38
75.3, 44
75.31, 32
75.32, 31
75.33, 31
75.34, 33
75.35, 35
75.36, 35
75.37, 45
75.38, 27
75.39, 30
75.4, 34
75.41, 25
75.42, 43
75.43, 38
75.44, 29
75.45, 26
75.46, 43
75.47, 35
75.48, 27
75.49, 27
75.5, 32
75.51, 37
75.52, 30
75.53, 39
75.54, 41
75.55, 26
75.56, 31
75.57, 33
75.58, 32
75.59, 38
75.6, 29
75.61, 42
75.62, 26
75.63, 32
75.64, 36
75.65, 38
75.66, 44
75.67, 27
75.68, 37
75.69, 31
75.7, 40
75.71, 25
75.72, 40
75.73, 40
75.74, 40
75.75, 43
75.76, 27
75.77, 36
75.78, 37
75.79, 35
75.8, 38
75.81, 41
75.82, 33
75.83, 26
75.84, 36
75.85, 25
75.86, 25
75.87, 39
75.88, 32
75.89, 34
75.9, 32
75.91, 33
75.92, 35
75.93, 33
75.94, 29
75.95, 35
75.96, 27
75.97, 33
75.98, 39
75.99, 27
76, 33
76.01, 32
76.02, 24
76.03, 35
76.04, 33
76.05, 33
76.06, 34
76.07, 27
76.08, 35
76.09, 30
76.1, 34
76.11, 41
76.12, 43
76.13, 33
76.14, 27
76.15, 39
76.16, 28
76.17, 39
76.18, 27
76.19, 34
76.2, 25
76.21, 32
76.22, 37
76.23, 28
76.24, 38
76.25, 32
76.26, 27
76.27, 35
76.28, 40
76.29, 36
76.3, 28
76.31, 30
76.32, 32
76.33, 31
76.34, 34
76.35, 34
76.36, 33
76.37, 40
76.38, 33
76.39, 37
76.4, 23
76.41, 33
76.42, 28
76.43, 37
76.44, 45
76.45, 37
76.46, 32
76.47, 35
76.48, 37
76.49, 37
76.5, 29
76.51, 27
76.52, 32
76.53, 33
76.54, 42
76.55, 39
76.56, 35
76.57, 31
76.58, 32
76.59, 42
76.6, 33
76.61, 41
76.62, 40
76.63, 28
76.64, 41
76.65, 32
76.66, 28
76.67, 31
76.68, 32
76.69, 29
76.7, 37
76.71, 22
76.72, 49
76.73, 26
76.74, 36
76.75, 38
76.76, 42
76.77, 31
76.78, 33
76.79, 27
76.8, 37
76.81, 36
76.82, 33
76.83, 30
76.84, 32
76.85, 40
76.86, 35
76.87, 39
76.88, 32
76.89, 39
76.9, 27
76.91, 36
76.92, 31
76.93, 34
76.94, 42
76.95, 28
76.96, 28
76.97, 47
76.98, 37
76.99, 34
77, 43
77.01, 30
77.02, 30
77.03, 33
77.04, 36
77.05, 33
77.06, 41
77.07, 35
77.08, 29
77.09, 24
77.1, 40
77.11, 33
77.12, 25
77.13, 34
77.14, 32
77.15, 27
77.16, 35
77.17, 39
77.18, 36
77.19, 31
77.2, 33
77.21, 41
77.22, 38
77.23, 39
77.24, 32
77.25, 33
77.26, 39
77.27, 42
77.28, 38
77.29, 31
77.3, 39
77.31, 47
77.32, 38
77.33, 32
77.34, 33
77.35, 35
77.36, 28
77.37, 33
77.38, 42
77.39, 34
77.4, 27
77.41, 28
77.42, 35
77.43, 29
77.44, 33
77.45, 34
77.46, 36
77.47, 42
77.48, 32
77.49, 40
77.5, 35
77.51, 35
77.52, 31
77.53, 46
77.54, 40
77.55, 39
77.56, 43
77.57, 34
77.58, 45
77.59, 33
77.6, 42
77.61, 48
77.62, 36
77.63, 53
77.64, 30
77.65, 36
77.66, 30
77.67, 32
77.68, 36
77.69, 33
77.7, 40
77.71, 34
77.72, 36
77.73, 31
77.74, 40
77.75, 27
77.76, 32
77.77, 31
77.78, 21
77.79, 44
77.8, 36
77.81, 35
77.82, 35
77.83, 26
77.84, 42
77.85, 32
77.86, 27
77.87, 29
77.88, 35
77.89, 30
77.9, 32
77.91, 35
77.92, 25
77.93, 34
77.94, 30
77.95, 29
77.96, 30
77.97, 29
77.98, 32
77.99, 38
78, 31
78.01, 31
78.02, 28
78.03, 34
78.04, 32
78.05, 35
78.06, 32
78.07, 39
78.08, 26
78.09, 29
78.1, 48
78.11, 33
78.12, 36
78.13, 32
78.14, 30
78.15, 34
78.16, 41
78.17, 39
78.18, 34
78.19, 36
78.2, 37
78.21, 43
78.22, 29
78.23, 47
78.24, 35
78.25, 30
78.26, 34
78.27, 21
78.28, 30
78.29, 34
78.3, 45
78.31, 19
78.32, 29
78.33, 28
78.34, 38
78.35, 34
78.36, 33
78.37, 28
78.38, 26
78.39, 31
78.4, 27
78.41, 35
78.42, 35
78.43, 37
78.44, 31
78.45, 27
78.46, 37
78.47, 25
78.48, 32
78.49, 41
78.5, 33
78.51, 29
78.52, 29
78.53, 34
78.54, 33
78.55, 47
78.56, 38
78.57, 31
78.58, 29
78.59, 30
78.6, 27
78.61, 39
78.62, 41
78.63, 27
78.64, 38
78.65, 36
78.66, 29
78.67, 34
78.68, 30
78.69, 32
78.7, 36
78.71, 30
78.72, 35
78.73, 35
78.74, 38
78.75, 33
78.76, 37
78.77, 38
78.78, 35
78.79, 34
78.8, 42
78.81, 35
78.82, 23
78.83, 40
78.84, 44
78.85, 38
78.86, 39
78.87, 45
78.88, 28
78.89, 35
78.9, 38
78.91, 41
78.92, 37
78.93, 37
78.94, 37
78.95, 32
78.96, 32
78.97, 31
78.98, 35
78.99, 42
79, 33
79.01, 35
79.02, 33
79.03, 34
79.04, 40
79.05, 36
79.06, 28
79.07, 32
79.08, 29
79.09, 33
79.1, 36
79.11, 29
79.12, 31
79.13, 29
79.14, 37
79.15, 24
79.16, 29
79.17, 33
79.18, 40
79.19, 28
79.2, 39
79.21, 49
79.22, 31
79.23, 39
79.24, 37
79.25, 23
79.26, 33
79.27, 41
79.28, 37
79.29, 37
79.3, 46
79.31, 31
79.32, 34
79.33, 26
79.34, 37
79.35, 26
79.36, 29
79.37, 35
79.38, 32
79.39, 32
79.4, 32
79.41, 38
79.42, 31
79.43, 37
79.44, 23
79.45, 34
79.46, 31
79.47, 35
79.48, 25
79.49, 36
79.5, 42
79.51, 45
79.52, 28
79.53, 39
79.54, 36
79.55, 24
79.56, 46
79.57, 26
79.58, 36
79.59, 32
79.6, 40
79.61, 37
79.62, 34
79.63, 35
79.64, 38
79.65, 24
79.66, 52
79.67, 36
79.68, 23
79.69, 31
79.7, 39
79.71, 48
79.72, 30
79.73, 33
79.74, 33
79.75, 26
79.76, 43
79.77, 37
79.78, 33
79.79, 39
79.8, 39
79.81, 41
79.82, 31
79.83, 30
79.84, 27
79.85, 32
79.86, 41
79.87, 25
79.88, 55
79.89, 55
79.9, 33
79.91, 34
79.92, 26
79.93, 44
79.94, 42
79.95, 34
79.96, 36
79.97, 40
79.98, 51
79.99, 48
80, 40
80.01, 40
80.02, 36
80.03, 43
80.04, 46
80.05, 41
80.06, 32
80.07, 35
80.08, 41
80.09, 28
80.1, 28
80.11, 34
80.12, 45
80.13, 32
80.14, 28
80.15, 37
80.16, 32
80.17, 30
80.18, 38
80.19, 32
80.2, 32
80.21, 35
80.22, 31
80.23, 31
80.24, 40
80.25, 36
80.26, 39
80.27, 38
80.28, 34
80.29, 37
80.3, 25
80.31, 40
80.32, 28
80.33, 31
80.34, 40
80.35, 42
80.36, 32
80.37, 26
80.38, 32
80.39, 35
80.4, 39
80.41, 46
80.42, 41
80.43, 25
80.44, 43
80.45, 38
80.46, 37
80.47, 32
80.48, 35
80.49, 27
80.5, 41
80.51, 37
80.52, 30
80.53, 29
80.54, 32
80.55, 36
80.56, 32
80.57, 32
80.58, 35
80.59, 42
80.6, 30
80.61, 39
80.62, 39
80.63, 36
80.64, 53
80.65, 37
80.66, 47
80.67, 37
80.68, 28
80.69, 43
80.7, 44
80.71, 38
80.72, 35
80.73, 38
80.74, 45
80.75, 46
80.76, 54
80.77, 52
80.78, 48
80.79, 51
80.8, 37
80.81, 46
80.82, 35
80.83, 37
80.84, 46
80.85, 32
80.86, 32
80.87, 30
80.88, 40
80.89, 38
80.9, 46
80.91, 34
80.92, 39
80.93, 26
80.94, 47
80.95, 47
80.96, 35
80.97, 37
80.98, 39
80.99, 36
81, 48
81.01, 52
81.02, 47
81.03, 46
81.04, 41
81.05, 36
81.06, 46
81.07, 33
81.08, 31
81.09, 43
81.1, 31
81.11, 31
81.12, 36
81.13, 27
81.14, 33
81.15, 34
81.16, 32
81.17, 37
81.18, 40
81.19, 32
81.2, 39
81.21, 26
81.22, 35
81.23, 32
81.24, 44
81.25, 36
81.26, 22
81.27, 33
81.28, 32
81.29, 42
81.3, 22
81.31, 41
81.32, 44
81.33, 42
81.34, 33
81.35, 32
81.36, 22
81.37, 33
81.38, 27
81.39, 26
81.4, 31
81.41, 24
81.42, 38
81.43, 30
81.44, 43
81.45, 23
81.46, 29
81.47, 29
81.48, 37
81.49, 29
81.5, 33
81.51, 32
81.52, 45
81.53, 45
81.54, 38
81.55, 44
81.56, 28
81.57, 30
81.58, 30
81.59, 33
81.6, 36
81.61, 31
81.62, 37
81.63, 34
81.64, 27
81.65, 31
81.66, 34
81.67, 31
81.68, 37
81.69, 30
81.7, 39
81.71, 34
81.72, 36
81.73, 34
81.74, 37
81.75, 29
81.76, 40
81.77, 40
81.78, 42
81.79, 41
81.8, 26
81.81, 27
81.82, 32
81.83, 31
81.84, 35
81.85, 41
81.86, 38
81.87, 42
81.88, 36
81.89, 23
81.9, 40
81.91, 27
81.92, 35
81.93, 35
81.94, 33
81.95, 39
81.96, 36
81.97, 29
81.98, 33
81.99, 40
82, 34
82.01, 42
82.02, 25
82.03, 44
82.04, 31
82.05, 33
82.06, 33
82.07, 30
82.08, 25
82.09, 37
82.1, 29
82.11, 22
82.12, 31
82.13, 31
82.14, 40
82.15, 32
82.16, 37
82.17, 45
82.18, 36
82.19, 47
82.2, 31
82.21, 29
82.22, 24
82.23, 21
82.24, 33
82.25, 43
82.26, 31
82.27, 35
82.28, 50
82.29, 32
82.3, 32
82.31, 36
82.32, 30
82.33, 32
82.34, 33
82.35, 36
82.36, 34
82.37, 35
82.38, 32
82.39, 39
82.4, 33
82.41, 37
82.42, 29
82.43, 22
82.44, 35
82.45, 32
82.46, 47
82.47, 39
82.48, 32
82.49, 36
82.5, 36
82.51, 37
82.52, 39
82.53, 28
82.54, 26
82.55, 25
82.56, 24
82.57, 30
82.58, 34
82.59, 35
82.6, 29
82.61, 38
82.62, 45
82.63, 34
82.64, 34
82.65, 33
82.66, 38
82.67, 36
82.68, 39
82.69, 26
82.7, 34
82.71, 35
82.72, 25
82.73, 32
82.74, 37
82.75, 35
82.76, 35
82.77, 37
82.78, 33
82.79, 36
82.8, 45
82.81, 47
82.82, 29
82.83, 39
82.84, 29
82.85, 34
82.86, 25
82.87, 21
82.88, 45
82.89, 42
82.9, 40
82.91, 27
82.92, 31
82.93, 37
82.94, 23
82.95, 55
82.96, 41
82.97, 31
82.98, 32
82.99, 29
83, 28
83.01, 38
83.02, 29
83.03, 28
83.04, 33
83.05, 37
83.06, 25
83.07, 41
83.08, 28
83.09, 27
83.1, 39
83.11, 39
83.12, 32
83.13, 34
83.14, 26
83.15, 26
83.16, 30
83.17, 33
83.18, 38
83.19, 42
83.2, 35
83.21, 26
83.22, 32
83.23, 37
83.24, 29
83.25, 31
83.26, 32
83.27, 36
83.28, 23
83.29, 35
83.3, 43
83.31, 38
83.32, 46
83.33, 34
83.34, 40
83.35, 47
83.36, 29
83.37, 28
83.38, 24
83.39, 44
83.4, 32
83.41, 44
83.42, 33
83.43, 43
83.44, 31
83.45, 37
83.46, 32
83.47, 33
83.48, 29
83.49, 29
83.5, 30
83.51, 25
83.52, 38
83.53, 41
83.54, 35
83.55, 30
83.56, 43
83.57, 36
83.58, 34
83.59, 36
83.6, 33
83.61, 38
83.62, 32
83.63, 29
83.64, 35
83.65, 30
83.66, 41
83.67, 30
83.68, 37
83.69, 37
83.7, 30
83.71, 37
83.72, 28
83.73, 28
83.74, 32
83.75, 35
83.76, 24
83.77, 38
83.78, 41
83.79, 33
83.8, 38
83.81, 37
83.82, 39
83.83, 37
83.84, 26
83.85, 23
83.86, 41
83.87, 24
83.88, 44
83.89, 34
83.9, 36
83.91, 26
83.92, 33
83.93, 21
83.94, 38
83.95, 34
83.96, 33
83.97, 39
83.98, 30
83.99, 46
84, 25
84.01, 42
84.02, 25
84.03, 32
84.04, 33
84.05, 25
84.06, 31
84.07, 32
84.08, 37
84.09, 43
84.1, 33
84.11, 41
84.12, 39
84.13, 26
84.14, 36
84.15, 29
84.16, 32
84.17, 32
84.18, 29
84.19, 28
84.2, 32
84.21, 40
84.22, 30
84.23, 36
84.24, 36
84.25, 32
84.26, 34
84.27, 34
84.28, 30
84.29, 39
84.3, 29
84.31, 36
84.32, 32
84.33, 28
84.34, 41
84.35, 43
84.36, 36
84.37, 31
84.38, 39
84.39, 31
84.4, 40
84.41, 31
84.42, 33
84.43, 31
84.44, 32
84.45, 23
84.46, 30
84.47, 39
84.48, 29
84.49, 32
84.5, 41
84.51, 36
84.52, 34
84.53, 39
84.54, 25
84.55, 39
84.56, 42
84.57, 34
84.58, 26
84.59, 35
84.6, 30
84.61, 21
84.62, 27
84.63, 45
84.64, 28
84.65, 35
84.66, 27
84.67, 35
84.68, 27
84.69, 32
84.7, 31
84.71, 34
84.72, 26
84.73, 36
84.74, 35
84.75, 28
84.76, 36
84.77, 34
84.78, 36
84.79, 47
84.8, 32
84.81, 35
84.82, 35
84.83, 28
84.84, 39
84.85, 33
84.86, 31
84.87, 40
84.88, 26
84.89, 36
84.9, 31
84.91, 21
84.92, 34
84.93, 36
84.94, 36
84.95, 38
84.96, 34
84.97, 39
84.98, 34
84.99, 32
85, 35
85.01, 42
85.02, 31
85.03, 23
85.04, 35
85.05, 35
85.06, 35
85.07, 24
85.08, 35
85.09, 34
85.1, 31
85.11, 34
85.12, 32
85.13, 30
85.14, 31
85.15, 26
85.16, 31
85.17, 37
85.18, 37
85.19, 31
85.2, 20
85.21, 43
85.22, 39
85.23, 31
85.24, 37
85.25, 28
85.26, 38
85.27, 33
85.28, 27
85.29, 28
85.3, 25
85.31, 31
85.32, 43
85.33, 37
85.34, 40
85.35, 34
85.36, 32
85.37, 26
85.38, 30
85.39, 37
85.4, 30
85.41, 32
85.42, 32
85.43, 30
85.44, 28
85.45, 31
85.46, 37
85.47, 32
85.48, 34
85.49, 27
85.5, 41
85.51, 29
85.52, 32
85.53, 36
85.54, 27
85.55, 29
85.56, 34
85.57, 40
85.58, 39
85.59, 35
85.6, 33
85.61, 30
85.62, 31
85.63, 30
85.64, 41
85.65, 22
85.66, 36
85.67, 34
85.68, 36
85.69, 35
85.7, 34
85.71, 32
85.72, 34
85.73, 27
85.74, 33
85.75, 28
85.76, 39
85.77, 35
85.78, 33
85.79, 43
85.8, 46
85.81, 38
85.82, 31
85.83, 46
85.84, 28
85.85, 38
85.86, 43
85.87, 35
85.88, 43
85.89, 43
85.9, 40
85.91, 28
85.92, 34
85.93, 37
85.94, 38
85.95, 35
85.96, 31
85.97, 24
85.98, 20
85.99, 42
86, 33
86.01, 40
86.02, 35
86.03, 24
86.04, 37
86.05, 39
86.06, 36
86.07, 35
86.08, 30
86.09, 43
86.1, 34
86.11, 35
86.12, 32
86.13, 27
86.14, 32
86.15, 25
86.16, 44
86.17, 40
86.18, 39
86.19, 36
86.2, 32
86.21, 37
86.22, 33
86.23, 40
86.24, 36
86.25, 33
86.26, 43
86.27, 36
86.28, 23
86.29, 40
86.3, 28
86.31, 30
86.32, 34
86.33, 38
86.34, 25
86.35, 30
86.36, 31
86.37, 35
86.38, 42
86.39, 39
86.4, 44
86.41, 44
86.42, 44
86.43, 35
86.44, 45
86.45, 45
86.46, 39
86.47, 36
86.48, 30
86.49, 41
86.5, 35
86.51, 46
86.52, 43
86.53, 30
86.54, 32
86.55, 27
86.56, 34
86.57, 33
86.58, 44
86.59, 45
86.6, 28
86.61, 38
86.62, 37
86.63, 42
86.64, 40
86.65, 37
86.66, 38
86.67, 50
86.68, 42
86.69, 32
86.7, 45
86.71, 36
86.72, 31
86.73, 40
86.74, 33
86.75, 37
86.76, 37
86.77, 33
86.78, 42
86.79, 39
86.8, 46
86.81, 38
86.82, 25
86.83, 20
86.84, 37
86.85, 32
86.86, 43
86.87, 29
86.88, 41
86.89, 41
86.9, 33
86.91, 41
86.92, 26
86.93, 38
86.94, 26
86.95, 27
86.96, 26
86.97, 28
86.98, 29
86.99, 30
87, 51
87.01, 31
87.02, 31
87.03, 38
87.04, 31
87.05, 32
87.06, 33
87.07, 36
87.08, 31
87.09, 29
87.1, 27
87.11, 34
87.12, 37
87.13, 24
87.14, 46
87.15, 34
87.16, 30
87.17, 39
87.18, 24
87.19, 37
87.2, 31
87.21, 36
87.22, 40
87.23, 38
87.24, 37
87.25, 30
87.26, 46
87.27, 44
87.28, 29
87.29, 23
87.3, 23
87.31, 22
87.32, 26
87.33, 30
87.34, 28
87.35, 31
87.36, 39
87.37, 32
87.38, 42
87.39, 35
87.4, 31
87.41, 32
87.42, 36
87.43, 27
87.44, 37
87.45, 34
87.46, 32
87.47, 27
87.48, 46
87.49, 41
87.5, 36
87.51, 44
87.52, 40
87.53, 34
87.54, 31
87.55, 34
87.56, 27
87.57, 35
87.58, 29
87.59, 29
87.6, 38
87.61, 33
87.62, 27
87.63, 29
87.64, 30
87.65, 28
87.66, 29
87.67, 26
87.68, 29
87.69, 25
87.7, 35
87.71, 31
87.72, 40
87.73, 32
87.74, 41
87.75, 29
87.76, 31
87.77, 48
87.78, 32
87.79, 46
87.8, 29
87.81, 36
87.82, 36
87.83, 31
87.84, 29
87.85, 35
87.86, 37
87.87, 30
87.88, 29
87.89, 35
87.9, 33
87.91, 37
87.92, 35
87.93, 27
87.94, 36
87.95, 35
87.96, 37
87.97, 38
87.98, 31
87.99, 38
88, 33
88.01, 37
88.02, 29
88.03, 36
88.04, 34
88.05, 41
88.06, 29
88.07, 36
88.08, 35
88.09, 31
88.1, 36
88.11, 35
88.12, 31
88.13, 39
88.14, 31
88.15, 27
88.16, 34
88.17, 32
88.18, 35
88.19, 30
88.2, 31
88.21, 31
88.22, 22
88.23, 30
88.24, 29
88.25, 45
88.26, 30
88.27, 37
88.28, 36
88.29, 39
88.3, 33
88.31, 44
88.32, 34
88.33, 41
88.34, 35
88.35, 31
88.36, 32
88.37, 28
88.38, 33
88.39, 33
88.4, 35
88.41, 35
88.42, 28
88.43, 27
88.44, 29
88.45, 23
88.46, 24
88.47, 29
88.48, 28
88.49, 39
88.5, 31
88.51, 33
88.52, 33
88.53, 34
88.54, 40
88.55, 30
88.56, 34
88.57, 28
88.58, 27
88.59, 26
88.6, 40
88.61, 31
88.62, 32
88.63, 29
88.64, 41
88.65, 23
88.66, 38
88.67, 38
88.68, 40
88.69, 35
88.7, 29
88.71, 35
88.72, 44
88.73, 30
88.74, 32
88.75, 29
88.76, 32
88.77, 36
88.78, 35
88.79, 28
88.8, 35
88.81, 32
88.82, 36
88.83, 35
88.84, 34
88.85, 40
88.86, 43
88.87, 31
88.88, 39
88.89, 25
88.9, 43
88.91, 31
88.92, 27
88.93, 37
88.94, 41
88.95, 38
88.96, 27
88.97, 31
88.98, 33
88.99, 33
89, 27
89.01, 24
89.02, 25
89.03, 38
89.04, 44
89.05, 25
89.06, 39
89.07, 47
89.08, 41
89.09, 47
89.1, 32
89.11, 33
89.12, 34
89.13, 46
89.14, 37
89.15, 30
89.16, 34
89.17, 24
89.18, 29
89.19, 35
89.2, 32
89.21, 27
89.22, 35
89.23, 34
89.24, 31
89.25, 40
89.26, 24
89.27, 36
89.28, 39
89.29, 41
89.3, 27
89.31, 34
89.32, 37
89.33, 39
89.34, 31
89.35, 28
89.36, 41
89.37, 30
89.38, 36
89.39, 46
89.4, 26
89.41, 29
89.42, 23
89.43, 25
89.44, 38
89.45, 23
89.46, 27
89.47, 41
89.48, 36
89.49, 44
89.5, 33
89.51, 40
89.52, 28
89.53, 32
89.54, 39
89.55, 51
89.56, 35
89.57, 28
89.58, 24
89.59, 39
89.6, 43
89.61, 37
89.62, 39
89.63, 40
89.64, 43
89.65, 44
89.66, 30
89.67, 36
89.68, 23
89.69, 30
89.7, 30
89.71, 38
89.72, 32
89.73, 33
89.74, 29
89.75, 31
89.76, 29
89.77, 33
89.78, 22
89.79, 34
89.8, 35
89.81, 32
89.82, 41
89.83, 33
89.84, 39
89.85, 37
89.86, 38
89.87, 33
89.88, 32
89.89, 34
89.9, 35
89.91, 32
89.92, 32
89.93, 28
89.94, 29
89.95, 43
89.96, 24
89.97, 38
89.98, 39
89.99, 29
90, 27
##END=



